 #
 # Subroutine ELSEPA. Elastic scattering of electrons and positrons
 #                    by neutral atoms and positive ions
 #
 # Projectile: electron
 # Kinetic energy = 3.70000E+06 eV = 1.35973E+05 a.u.
 #
 # WARNING: High-energy factorization with free-atom DF screening.
 #          Absorption, polarization and exchange corrections are
 #          switched off.
 #          Phase shifts are calculated for the bare nucleus.
 #          Scattering amplitudes are not evaluated.
 #
 # Element: Ac,  Z =  89,  atomic weight = 2.27028E+02 g/mol
 #
 # Nuclear model: Fermi distribution
 #                Average radius = 6.52745E-13 cm
 #                Skin thickness = 5.46000E-14 cm
 #
 # Number of electrons = 89
 #
 # Total elastic cross section = 1.17318E-17 cm**2 = 4.18951E-01 a0**2
 # 1st transport cross section = 7.48116E-22 cm**2 = 2.67157E-05 a0**2
 # 2nd transport cross section = 1.95776E-21 cm**2 = 6.99127E-05 a0**2
 #
 #
 # Differential cross section:                       MU=(1-COS(THETA))/2
 #
 #  THETA        MU          DCS          DCS        Sherman      error
 #  (deg)                 (cm**2/sr)   (a0**2/sr)    function
 #----------------------------------------------------------------------
  0.000E+00  0.00000E+00  2.68536E-12  9.58958E+04  0.00000E+00  1.0E-05
  1.000E-04  7.61557E-13  2.68534E-12  9.58951E+04  0.00000E+00  1.0E-05
  1.250E-04  1.18994E-12  2.68532E-12  9.58946E+04  0.00000E+00  1.0E-05
  1.500E-04  1.71346E-12  2.68531E-12  9.58941E+04  0.00000E+00  1.0E-05
  1.750E-04  2.33225E-12  2.68529E-12  9.58935E+04  0.00000E+00  1.0E-05
  2.000E-04  3.04617E-12  2.68527E-12  9.58927E+04  0.00000E+00  1.0E-05
  2.250E-04  3.85530E-12  2.68525E-12  9.58919E+04  0.00000E+00  1.0E-05
  2.500E-04  4.75964E-12  2.68522E-12  9.58910E+04  0.00000E+00  1.0E-05
  2.750E-04  5.75917E-12  2.68519E-12  9.58900E+04  0.00000E+00  1.0E-05
  3.000E-04  6.85391E-12  2.68516E-12  9.58888E+04  0.00000E+00  1.0E-05
  3.250E-04  8.04379E-12  2.68513E-12  9.58876E+04  0.00000E+00  1.0E-05
  3.500E-04  9.32893E-12  2.68509E-12  9.58863E+04  0.00000E+00  1.0E-05
  3.750E-04  1.07092E-11  2.68505E-12  9.58849E+04  0.00000E+00  1.0E-05
  4.000E-04  1.21847E-11  2.68501E-12  9.58834E+04  0.00000E+00  1.0E-05
  4.250E-04  1.37554E-11  2.68496E-12  9.58818E+04  0.00000E+00  1.0E-05
  4.500E-04  1.54213E-11  2.68491E-12  9.58801E+04  0.00000E+00  1.0E-05
  4.750E-04  1.71823E-11  2.68486E-12  9.58782E+04  0.00000E+00  1.0E-05
  5.000E-04  1.90386E-11  2.68481E-12  9.58763E+04  0.00000E+00  1.0E-05
  5.250E-04  2.09900E-11  2.68476E-12  9.58743E+04  0.00000E+00  1.0E-05
  5.500E-04  2.30367E-11  2.68470E-12  9.58722E+04  0.00000E+00  1.0E-05
  5.750E-04  2.51785E-11  2.68463E-12  9.58701E+04  0.00000E+00  1.0E-05
  6.000E-04  2.74156E-11  2.68457E-12  9.58678E+04  0.00000E+00  1.0E-05
  6.250E-04  2.97478E-11  2.68450E-12  9.58654E+04  0.00000E+00  1.0E-05
  6.500E-04  3.21752E-11  2.68443E-12  9.58629E+04  0.00000E+00  1.0E-05
  6.750E-04  3.46979E-11  2.68436E-12  9.58603E+04  0.00000E+00  1.0E-05
  7.000E-04  3.73157E-11  2.68429E-12  9.58576E+04  0.00000E+00  1.0E-05
  7.250E-04  4.00286E-11  2.68421E-12  9.58548E+04  0.00000E+00  1.0E-05
  7.500E-04  4.28368E-11  2.68413E-12  9.58519E+04  0.00000E+00  1.0E-05
  7.750E-04  4.57402E-11  2.68404E-12  9.58490E+04  0.00000E+00  1.0E-05
  8.000E-04  4.87388E-11  2.68396E-12  9.58459E+04  0.00000E+00  1.0E-05
  8.250E-04  5.18325E-11  2.68387E-12  9.58427E+04  0.00000E+00  1.0E-05
  8.500E-04  5.50215E-11  2.68378E-12  9.58395E+04  0.00000E+00  1.0E-05
  8.750E-04  5.83057E-11  2.68368E-12  9.58361E+04  0.00000E+00  1.0E-05
  9.000E-04  6.16850E-11  2.68359E-12  9.58326E+04  0.00000E+00  1.0E-05
  9.250E-04  6.51595E-11  2.68349E-12  9.58291E+04  0.00000E+00  1.0E-05
  9.500E-04  6.87293E-11  2.68338E-12  9.58254E+04  0.00000E+00  1.0E-05
  9.750E-04  7.23943E-11  2.68328E-12  9.58216E+04  0.00000E+00  1.0E-05
  1.000E-03  7.61544E-11  2.68317E-12  9.58178E+04  0.00000E+00  1.0E-05
  1.250E-03  1.18991E-10  2.68194E-12  9.57739E+04  0.00000E+00  1.0E-05
  1.500E-03  1.71347E-10  2.68044E-12  9.57203E+04  0.00000E+00  1.0E-05
  1.750E-03  2.33223E-10  2.67867E-12  9.56569E+04  0.00000E+00  1.0E-05
  2.000E-03  3.04617E-10  2.67662E-12  9.55839E+04  0.00000E+00  1.0E-05
  2.250E-03  3.85531E-10  2.67431E-12  9.55013E+04  0.00000E+00  1.0E-05
  2.500E-03  4.75965E-10  2.67173E-12  9.54091E+04  0.00000E+00  1.0E-05
  2.750E-03  5.75917E-10  2.66888E-12  9.53074E+04  0.00000E+00  1.0E-05
  3.000E-03  6.85389E-10  2.66576E-12  9.51961E+04  0.00000E+00  1.0E-05
  3.250E-03  8.04380E-10  2.66238E-12  9.50755E+04  0.00000E+00  1.0E-05
  3.500E-03  9.32891E-10  2.65874E-12  9.49454E+04  0.00000E+00  1.0E-05
  3.750E-03  1.07092E-09  2.65484E-12  9.48061E+04  0.00000E+00  1.0E-05
  4.000E-03  1.21847E-09  2.65068E-12  9.46574E+04  0.00000E+00  1.0E-05
  4.250E-03  1.37554E-09  2.64626E-12  9.44997E+04  0.00000E+00  1.0E-05
  4.500E-03  1.54213E-09  2.64159E-12  9.43328E+04  0.00000E+00  1.0E-05
  4.750E-03  1.71823E-09  2.63666E-12  9.41569E+04  0.00000E+00  1.0E-05
  5.000E-03  1.90386E-09  2.63148E-12  9.39720E+04  0.00000E+00  1.0E-05
  5.250E-03  2.09900E-09  2.62606E-12  9.37783E+04  0.00000E+00  1.0E-05
  5.500E-03  2.30367E-09  2.62039E-12  9.35759E+04  0.00000E+00  1.0E-05
  5.750E-03  2.51785E-09  2.61448E-12  9.33648E+04  0.00000E+00  1.0E-05
  6.000E-03  2.74156E-09  2.60833E-12  9.31452E+04  0.00000E+00  1.0E-05
  6.250E-03  2.97478E-09  2.60194E-12  9.29171E+04  0.00000E+00  1.0E-05
  6.500E-03  3.21752E-09  2.59532E-12  9.26806E+04  0.00000E+00  1.0E-05
  6.750E-03  3.46978E-09  2.58847E-12  9.24359E+04  0.00000E+00  1.0E-05
  7.000E-03  3.73156E-09  2.58139E-12  9.21831E+04  0.00000E+00  1.0E-05
  7.250E-03  4.00286E-09  2.57409E-12  9.19223E+04  0.00000E+00  1.0E-05
  7.500E-03  4.28368E-09  2.56656E-12  9.16536E+04  0.00000E+00  1.0E-05
  7.750E-03  4.57402E-09  2.55882E-12  9.13772E+04  0.00000E+00  1.0E-05
  8.000E-03  4.87388E-09  2.55087E-12  9.10931E+04  0.00000E+00  1.0E-05
  8.250E-03  5.18326E-09  2.54270E-12  9.08014E+04  0.00000E+00  1.0E-05
  8.500E-03  5.50215E-09  2.53433E-12  9.05024E+04  0.00000E+00  1.0E-05
  8.750E-03  5.83057E-09  2.52575E-12  9.01962E+04  0.00000E+00  1.0E-05
  9.000E-03  6.16850E-09  2.51698E-12  8.98829E+04  0.00000E+00  1.0E-05
  9.250E-03  6.51596E-09  2.50801E-12  8.95625E+04  0.00000E+00  1.0E-05
  9.500E-03  6.87293E-09  2.49884E-12  8.92353E+04  0.00000E+00  1.0E-05
  9.750E-03  7.23942E-09  2.48950E-12  8.89015E+04  0.00000E+00  1.0E-05
  1.000E-02  7.61544E-09  2.47996E-12  8.85611E+04  0.00000E+00  1.0E-05
  1.250E-02  1.18991E-08  2.37547E-12  8.48296E+04  0.00000E+00  1.0E-05
  1.500E-02  1.71347E-08  2.25759E-12  8.06201E+04  0.00000E+00  1.0E-05
  1.750E-02  2.33223E-08  2.13012E-12  7.60681E+04  0.00000E+00  1.0E-05
  2.000E-02  3.04617E-08  1.99722E-12  7.13219E+04  0.00000E+00  1.0E-05
  2.250E-02  3.85531E-08  1.86304E-12  6.65302E+04  0.00000E+00  1.0E-05
  2.500E-02  4.75965E-08  1.73061E-12  6.18011E+04  0.00000E+00  1.0E-05
  2.750E-02  5.75917E-08  1.60204E-12  5.72098E+04  0.00000E+00  1.0E-05
  3.000E-02  6.85389E-08  1.47915E-12  5.28214E+04  0.00000E+00  1.0E-05
  3.250E-02  8.04380E-08  1.36357E-12  4.86938E+04  0.00000E+00  1.0E-05
  3.500E-02  9.32891E-08  1.25613E-12  4.48574E+04  0.00000E+00  1.0E-05
  3.750E-02  1.07092E-07  1.15667E-12  4.13053E+04  0.00000E+00  1.0E-05
  4.000E-02  1.21847E-07  1.06520E-12  3.80389E+04  0.00000E+00  1.0E-05
  4.250E-02  1.37554E-07  9.81660E-13  3.50557E+04  0.00000E+00  1.0E-05
  4.500E-02  1.54213E-07  9.05889E-13  3.23499E+04  0.00000E+00  1.0E-05
  4.750E-02  1.71823E-07  8.36947E-13  2.98879E+04  0.00000E+00  1.0E-05
  5.000E-02  1.90386E-07  7.74339E-13  2.76522E+04  0.00000E+00  1.0E-05
  5.250E-02  2.09900E-07  7.17556E-13  2.56244E+04  0.00000E+00  1.0E-05
  5.500E-02  2.30367E-07  6.66221E-13  2.37912E+04  0.00000E+00  1.0E-05
  5.750E-02  2.51785E-07  6.19559E-13  2.21249E+04  0.00000E+00  1.0E-05
  6.000E-02  2.74156E-07  5.77124E-13  2.06095E+04  0.00000E+00  1.0E-05
  6.250E-02  2.97478E-07  5.38498E-13  1.92301E+04  0.00000E+00  1.0E-05
  6.500E-02  3.21752E-07  5.03287E-13  1.79727E+04  0.00000E+00  1.0E-05
  6.750E-02  3.46978E-07  4.71085E-13  1.68228E+04  0.00000E+00  1.0E-05
  7.000E-02  3.73156E-07  4.41590E-13  1.57695E+04  0.00000E+00  1.0E-05
  7.250E-02  4.00286E-07  4.14530E-13  1.48031E+04  0.00000E+00  1.0E-05
  7.500E-02  4.28368E-07  3.89615E-13  1.39134E+04  0.00000E+00  1.0E-05
  7.750E-02  4.57402E-07  3.66625E-13  1.30924E+04  0.00000E+00  1.0E-05
  8.000E-02  4.87388E-07  3.45399E-13  1.23344E+04  0.00000E+00  1.0E-05
  8.250E-02  5.18325E-07  3.25770E-13  1.16335E+04  0.00000E+00  1.0E-05
  8.500E-02  5.50215E-07  3.07551E-13  1.09829E+04  0.00000E+00  1.0E-05
  8.750E-02  5.83057E-07  2.90595E-13  1.03773E+04  0.00000E+00  1.0E-05
  9.000E-02  6.16850E-07  2.74835E-13  9.81454E+03  0.00000E+00  1.0E-05
  9.250E-02  6.51596E-07  2.60168E-13  9.29075E+03  0.00000E+00  1.0E-05
  9.500E-02  6.87293E-07  2.46481E-13  8.80199E+03  0.00000E+00  1.0E-05
  9.750E-02  7.23942E-07  2.33651E-13  8.34385E+03  0.00000E+00  1.0E-05
  1.000E-01  7.61543E-07  2.21668E-13  7.91590E+03  0.00000E+00  1.0E-05
  1.250E-01  1.18991E-06  1.35695E-13  4.84575E+03  0.00000E+00  1.0E-05
  1.500E-01  1.71347E-06  8.70037E-14  3.10696E+03  0.00000E+00  1.0E-05
  1.750E-01  2.33223E-06  5.92712E-14  2.11661E+03  0.00000E+00  1.0E-05
  2.000E-01  3.04617E-06  4.20409E-14  1.50131E+03  0.00000E+00  1.0E-05
  2.250E-01  3.85531E-06  3.06006E-14  1.09277E+03  0.00000E+00  1.0E-05
  2.500E-01  4.75964E-06  2.28124E-14  8.14644E+02  0.00000E+00  1.0E-05
  2.750E-01  5.75916E-06  1.73980E-14  6.21292E+02  0.00000E+00  1.0E-05
  3.000E-01  6.85388E-06  1.35190E-14  4.82771E+02  0.00000E+00  1.0E-05
  3.250E-01  8.04378E-06  1.06551E-14  3.80500E+02  0.00000E+00  1.0E-05
  3.500E-01  9.32888E-06  8.50777E-15  3.03818E+02  0.00000E+00  1.0E-05
  3.750E-01  1.07092E-05  6.88872E-15  2.46001E+02  0.00000E+00  1.0E-05
  4.000E-01  1.21846E-05  5.64594E-15  2.01620E+02  0.00000E+00  1.0E-05
  4.250E-01  1.37553E-05  4.67479E-15  1.66940E+02  0.00000E+00  1.0E-05
  4.500E-01  1.54212E-05  3.90139E-15  1.39321E+02  0.00000E+00  1.0E-05
  4.750E-01  1.71822E-05  3.28442E-15  1.17289E+02  0.00000E+00  1.0E-05
  5.000E-01  1.90385E-05  2.78430E-15  9.94293E+01  0.00000E+00  1.0E-05
  5.250E-01  2.09899E-05  2.37983E-15  8.49852E+01  0.00000E+00  1.0E-05
  5.500E-01  2.30365E-05  2.04274E-15  7.29477E+01  0.00000E+00  1.0E-05
  5.750E-01  2.51783E-05  1.76280E-15  6.29506E+01  0.00000E+00  1.0E-05
  6.000E-01  2.74153E-05  1.52866E-15  5.45894E+01  0.00000E+00  1.0E-05
  6.250E-01  2.97475E-05  1.33178E-15  4.75587E+01  0.00000E+00  1.0E-05
  6.500E-01  3.21749E-05  1.16509E-15  4.16061E+01  0.00000E+00  1.0E-05
  6.750E-01  3.46974E-05  1.02283E-15  3.65261E+01  0.00000E+00  1.0E-05
  7.000E-01  3.73152E-05  9.01622E-16  3.21975E+01  0.00000E+00  1.0E-05
  7.250E-01  4.00281E-05  7.98082E-16  2.85000E+01  0.00000E+00  1.0E-05
  7.500E-01  4.28362E-05  7.09006E-16  2.53191E+01  0.00000E+00  1.0E-05
  7.750E-01  4.57395E-05  6.32127E-16  2.25737E+01  0.00000E+00  1.0E-05
  8.000E-01  4.87380E-05  5.65540E-16  2.01958E+01  0.00000E+00  1.0E-05
  8.250E-01  5.18317E-05  5.07597E-16  1.81266E+01  0.00000E+00  1.0E-05
  8.500E-01  5.50205E-05  4.56891E-16  1.63159E+01  0.00000E+00  1.0E-05
  8.750E-01  5.83045E-05  4.12341E-16  1.47250E+01  0.00000E+00  1.0E-05
  9.000E-01  6.16838E-05  3.73156E-16  1.33256E+01  0.00000E+00  1.0E-05
  9.250E-01  6.51582E-05  3.38576E-16  1.20908E+01  0.00000E+00  1.0E-05
  9.500E-01  6.87277E-05  3.07940E-16  1.09967E+01  0.00000E+00  1.0E-05
  9.750E-01  7.23925E-05  2.80685E-16  1.00235E+01  0.00000E+00  1.0E-05
  1.000E+00  7.61524E-05  2.56423E-16  9.15702E+00  0.00000E+00  1.1E-05
  1.100E+00  9.21439E-05  1.82284E-16  6.50946E+00  0.00000E+00  8.6E-06
  1.200E+00  1.09658E-04  1.33251E-16  4.75847E+00  0.00000E+00  4.7E-06
  1.300E+00  1.28695E-04  9.96798E-17  3.55963E+00  0.00000E+00  9.4E-07
  1.400E+00  1.49255E-04  7.60118E-17  2.71443E+00  0.00000E+00  1.8E-06
  1.500E+00  1.71338E-04  5.90401E-17  2.10836E+00  0.00000E+00  3.3E-06
  1.600E+00  1.94942E-04  4.65830E-17  1.66351E+00  0.00000E+00  3.5E-06
  1.700E+00  2.20070E-04  3.72567E-17  1.33046E+00  0.00000E+00  2.8E-06
  1.800E+00  2.46720E-04  3.01478E-17  1.07660E+00  0.00000E+00  1.6E-06
  1.900E+00  2.74892E-04  2.46702E-17  8.80990E-01  0.00000E+00  2.6E-07
  2.000E+00  3.04586E-04  2.03895E-17  7.28122E-01  0.00000E+00  8.4E-07
  2.100E+00  3.35803E-04  1.70028E-17  6.07180E-01  0.00000E+00  1.5E-06
  2.200E+00  3.68542E-04  1.42850E-17  5.10126E-01  0.00000E+00  1.6E-06
  2.300E+00  4.02802E-04  1.20912E-17  4.31785E-01  0.00000E+00  1.3E-06
  2.400E+00  4.38585E-04  1.03038E-17  3.67957E-01  0.00000E+00  7.3E-07
  2.500E+00  4.75889E-04  8.83498E-18  3.15503E-01  0.00000E+00  1.0E-07
  2.600E+00  5.14715E-04  7.61668E-18  2.71997E-01  0.00000E+00  4.8E-07
  2.700E+00  5.55063E-04  6.60110E-18  2.35730E-01  0.00000E+00  8.1E-07
  2.800E+00  5.96931E-04  5.74955E-18  2.05320E-01  0.00000E+00  8.8E-07
  2.900E+00  6.40321E-04  5.03114E-18  1.79665E-01  0.00000E+00  7.1E-07
  3.000E+00  6.85233E-04  4.42096E-18  1.57875E-01  0.00000E+00  3.9E-07
  3.100E+00  7.31665E-04  3.90049E-18  1.39289E-01  0.00000E+00  1.0E-07
  3.200E+00  7.79618E-04  3.45464E-18  1.23367E-01  0.00000E+00  3.1E-07
  3.300E+00  8.29092E-04  3.07094E-18  1.09665E-01  0.00000E+00  5.0E-07
  3.400E+00  8.80086E-04  2.73903E-18  9.78125E-02  0.00000E+00  5.4E-07
  3.500E+00  9.32601E-04  2.45081E-18  8.75201E-02  0.00000E+00  4.3E-07
  3.600E+00  9.86636E-04  2.19972E-18  7.85533E-02  0.00000E+00  2.3E-07
  3.700E+00  1.04219E-03  1.98012E-18  7.07113E-02  0.00000E+00  1.0E-07
  3.800E+00  1.09927E-03  1.78735E-18  6.38276E-02  0.00000E+00  2.2E-07
  3.900E+00  1.15786E-03  1.61750E-18  5.77620E-02  0.00000E+00  3.4E-07
  4.000E+00  1.21797E-03  1.46747E-18  5.24042E-02  0.00000E+00  3.6E-07
  4.100E+00  1.27961E-03  1.33453E-18  4.76570E-02  0.00000E+00  2.8E-07
  4.200E+00  1.34276E-03  1.21640E-18  4.34383E-02  0.00000E+00  1.4E-07
  4.300E+00  1.40743E-03  1.11104E-18  3.96760E-02  0.00000E+00  1.0E-07
  4.400E+00  1.47362E-03  1.01691E-18  3.63147E-02  0.00000E+00  1.6E-07
  4.500E+00  1.54133E-03  9.32606E-19  3.33039E-02  0.00000E+00  2.4E-07
  4.600E+00  1.61056E-03  8.56900E-19  3.06004E-02  0.00000E+00  2.5E-07
  4.700E+00  1.68131E-03  7.88720E-19  2.81657E-02  0.00000E+00  1.9E-07
  4.800E+00  1.75357E-03  7.27220E-19  2.59695E-02  0.00000E+00  1.0E-07
  4.900E+00  1.82735E-03  6.71627E-19  2.39842E-02  0.00000E+00  1.0E-07
  5.000E+00  1.90265E-03  6.21271E-19  2.21860E-02  0.00000E+00  1.2E-07
  5.100E+00  1.97947E-03  5.75551E-19  2.05533E-02  0.00000E+00  1.8E-07
  5.200E+00  2.05780E-03  5.33969E-19  1.90684E-02  0.00000E+00  1.8E-07
  5.300E+00  2.13765E-03  4.96093E-19  1.77158E-02  0.00000E+00  1.4E-07
  5.400E+00  2.21902E-03  4.61530E-19  1.64815E-02  0.00000E+00  1.0E-07
  5.500E+00  2.30190E-03  4.29930E-19  1.53531E-02  0.00000E+00  1.0E-07
  5.600E+00  2.38630E-03  4.00989E-19  1.43196E-02  0.00000E+00  1.0E-07
  5.700E+00  2.47222E-03  3.74454E-19  1.33720E-02  0.00000E+00  1.4E-07
  5.800E+00  2.55965E-03  3.50087E-19  1.25018E-02  0.00000E+00  1.4E-07
  5.900E+00  2.64859E-03  3.27674E-19  1.17014E-02  0.00000E+00  1.0E-07
  6.000E+00  2.73905E-03  3.07026E-19  1.09641E-02  0.00000E+00  1.0E-07
  6.100E+00  2.83103E-03  2.87985E-19  1.02841E-02  0.00000E+00  1.0E-07
  6.200E+00  2.92452E-03  2.70404E-19  9.65630E-03  0.00000E+00  1.0E-07
  6.300E+00  3.01952E-03  2.54148E-19  9.07580E-03  0.00000E+00  1.1E-07
  6.400E+00  3.11604E-03  2.39095E-19  8.53824E-03  0.00000E+00  1.1E-07
  6.500E+00  3.21407E-03  2.25145E-19  8.04006E-03  0.00000E+00  1.0E-07
  6.600E+00  3.31362E-03  2.12201E-19  7.57784E-03  0.00000E+00  1.0E-07
  6.700E+00  3.41468E-03  2.00178E-19  7.14850E-03  0.00000E+00  1.0E-07
  6.800E+00  3.51725E-03  1.88995E-19  6.74913E-03  0.00000E+00  1.0E-07
  6.900E+00  3.62133E-03  1.78585E-19  6.37738E-03  0.00000E+00  1.0E-07
  7.000E+00  3.72692E-03  1.68885E-19  6.03099E-03  0.00000E+00  1.0E-07
  7.100E+00  3.83403E-03  1.59838E-19  5.70792E-03  0.00000E+00  1.0E-07
  7.200E+00  3.94265E-03  1.51389E-19  5.40621E-03  0.00000E+00  1.0E-07
  7.300E+00  4.05278E-03  1.43494E-19  5.12426E-03  0.00000E+00  1.0E-07
  7.400E+00  4.16442E-03  1.36109E-19  4.86055E-03  0.00000E+00  1.0E-07
  7.500E+00  4.27757E-03  1.29196E-19  4.61368E-03  0.00000E+00  1.0E-07
  7.600E+00  4.39223E-03  1.22718E-19  4.38233E-03  0.00000E+00  1.0E-07
  7.700E+00  4.50840E-03  1.16642E-19  4.16535E-03  0.00000E+00  1.0E-07
  7.800E+00  4.62608E-03  1.10940E-19  3.96172E-03  0.00000E+00  1.0E-07
  7.900E+00  4.74527E-03  1.05584E-19  3.77046E-03  0.00000E+00  1.0E-07
  8.000E+00  4.86597E-03  1.00549E-19  3.59066E-03  0.00000E+00  1.0E-07
  8.100E+00  4.98817E-03  9.58114E-20  3.42149E-03  0.00000E+00  1.0E-07
  8.200E+00  5.11188E-03  9.13517E-20  3.26223E-03  0.00000E+00  1.0E-07
  8.300E+00  5.23711E-03  8.71504E-20  3.11220E-03  0.00000E+00  1.0E-07
  8.400E+00  5.36383E-03  8.31893E-20  2.97074E-03  0.00000E+00  1.0E-07
  8.500E+00  5.49207E-03  7.94517E-20  2.83727E-03  0.00000E+00  1.0E-07
  8.600E+00  5.62181E-03  7.59233E-20  2.71127E-03  0.00000E+00  1.0E-07
  8.700E+00  5.75306E-03  7.25901E-20  2.59224E-03  0.00000E+00  1.0E-07
  8.800E+00  5.88581E-03  6.94393E-20  2.47972E-03  0.00000E+00  1.0E-07
  8.900E+00  6.02007E-03  6.64584E-20  2.37327E-03  0.00000E+00  1.0E-07
  9.000E+00  6.15583E-03  6.36372E-20  2.27252E-03  0.00000E+00  1.0E-07
  9.100E+00  6.29310E-03  6.09653E-20  2.17711E-03  0.00000E+00  1.0E-07
  9.200E+00  6.43187E-03  5.84335E-20  2.08670E-03  0.00000E+00  1.0E-07
  9.300E+00  6.57214E-03  5.60326E-20  2.00096E-03  0.00000E+00  1.0E-07
  9.400E+00  6.71392E-03  5.37549E-20  1.91962E-03  0.00000E+00  1.0E-07
  9.500E+00  6.85720E-03  5.15928E-20  1.84241E-03  0.00000E+00  1.0E-07
  9.600E+00  7.00198E-03  4.95394E-20  1.76908E-03  0.00000E+00  1.0E-07
  9.700E+00  7.14827E-03  4.75880E-20  1.69940E-03  0.00000E+00  1.0E-07
  9.800E+00  7.29605E-03  4.57326E-20  1.63314E-03  0.00000E+00  1.0E-07
  9.900E+00  7.44534E-03  4.39678E-20  1.57012E-03  0.00000E+00  1.0E-07
  1.000E+01  7.59612E-03  4.22882E-20  1.51014E-03  0.00000E+00  1.0E-07
  1.025E+01  7.97965E-03  3.84303E-20  1.37237E-03  0.00000E+00  1.0E-07
  1.050E+01  8.37255E-03  3.50070E-20  1.25012E-03  0.00000E+00  1.0E-07
  1.075E+01  8.77480E-03  3.19605E-20  1.14133E-03  0.00000E+00  1.0E-07
  1.100E+01  9.18641E-03  2.92422E-20  1.04426E-03  0.00000E+00  1.0E-07
  1.125E+01  9.60736E-03  2.68103E-20  9.57413E-04  0.00000E+00  1.0E-07
  1.150E+01  1.00376E-02  2.46292E-20  8.79526E-04  0.00000E+00  1.0E-07
  1.175E+01  1.04773E-02  2.26685E-20  8.09507E-04  0.00000E+00  1.0E-07
  1.200E+01  1.09262E-02  2.09018E-20  7.46417E-04  0.00000E+00  1.0E-07
  1.225E+01  1.13844E-02  1.93064E-20  6.89445E-04  0.00000E+00  1.0E-07
  1.250E+01  1.18520E-02  1.78628E-20  6.37891E-04  0.00000E+00  1.0E-07
  1.275E+01  1.23288E-02  1.65537E-20  5.91144E-04  0.00000E+00  1.0E-07
  1.300E+01  1.28150E-02  1.53644E-20  5.48673E-04  0.00000E+00  1.0E-07
  1.325E+01  1.33104E-02  1.42818E-20  5.10013E-04  0.00000E+00  1.0E-07
  1.350E+01  1.38150E-02  1.32948E-20  4.74766E-04  0.00000E+00  1.0E-07
  1.375E+01  1.43290E-02  1.23931E-20  4.42567E-04  0.00000E+00  1.0E-07
  1.400E+01  1.48521E-02  1.15681E-20  4.13105E-04  0.00000E+00  1.0E-07
  1.425E+01  1.53845E-02  1.08121E-20  3.86105E-04  0.00000E+00  1.0E-07
  1.450E+01  1.59262E-02  1.01181E-20  3.61324E-04  0.00000E+00  1.0E-07
  1.475E+01  1.64770E-02  9.48016E-21  3.38543E-04  0.00000E+00  1.0E-07
  1.500E+01  1.70371E-02  8.89282E-21  3.17568E-04  0.00000E+00  1.0E-07
  1.525E+01  1.76063E-02  8.35137E-21  2.98233E-04  0.00000E+00  1.0E-07
