 #
 # Subroutine ELSEPA. Elastic scattering of electrons and positrons
 #                    by neutral atoms and positive ions
 #
 # Projectile: electron
 # Kinetic energy = 3.70000E+06 eV = 1.35973E+05 a.u.
 #
 # WARNING: High-energy factorization with free-atom DF screening.
 #          Absorption, polarization and exchange corrections are
 #          switched off.
 #          Phase shifts are calculated for the bare nucleus.
 #          Scattering amplitudes are not evaluated.
 #
 # Element: Am,  Z =  95,  atomic weight = 2.43061E+02 g/mol
 #
 # Nuclear model: Fermi distribution
 #                Average radius = 6.67763E-13 cm
 #                Skin thickness = 5.46000E-14 cm
 #
 # Number of electrons = 95
 #
 # Total elastic cross section = 1.16824E-17 cm**2 = 4.17186E-01 a0**2
 # 1st transport cross section = 8.60579E-22 cm**2 = 3.07318E-05 a0**2
 # 2nd transport cross section = 2.22305E-21 cm**2 = 7.93865E-05 a0**2
 #
 #
 # Differential cross section:                       MU=(1-COS(THETA))/2
 #
 #  THETA        MU          DCS          DCS        Sherman      error
 #  (deg)                 (cm**2/sr)   (a0**2/sr)    function
 #----------------------------------------------------------------------
  0.000E+00  0.00000E+00  1.99465E-12  7.12301E+04  0.00000E+00  1.0E-05
  1.000E-04  7.61557E-13  1.99463E-12  7.12297E+04  0.00000E+00  1.0E-05
  1.250E-04  1.18994E-12  1.99463E-12  7.12294E+04  0.00000E+00  1.0E-05
  1.500E-04  1.71346E-12  1.99462E-12  7.12290E+04  0.00000E+00  1.0E-05
  1.750E-04  2.33225E-12  1.99460E-12  7.12286E+04  0.00000E+00  1.0E-05
  2.000E-04  3.04617E-12  1.99459E-12  7.12282E+04  0.00000E+00  1.0E-05
  2.250E-04  3.85530E-12  1.99458E-12  7.12276E+04  0.00000E+00  1.0E-05
  2.500E-04  4.75964E-12  1.99456E-12  7.12270E+04  0.00000E+00  1.0E-05
  2.750E-04  5.75917E-12  1.99454E-12  7.12264E+04  0.00000E+00  1.0E-05
  3.000E-04  6.85391E-12  1.99452E-12  7.12257E+04  0.00000E+00  1.0E-05
  3.250E-04  8.04379E-12  1.99450E-12  7.12249E+04  0.00000E+00  1.0E-05
  3.500E-04  9.32893E-12  1.99448E-12  7.12241E+04  0.00000E+00  1.0E-05
  3.750E-04  1.07092E-11  1.99445E-12  7.12232E+04  0.00000E+00  1.0E-05
  4.000E-04  1.21847E-11  1.99442E-12  7.12222E+04  0.00000E+00  1.0E-05
  4.250E-04  1.37554E-11  1.99440E-12  7.12212E+04  0.00000E+00  1.0E-05
  4.500E-04  1.54213E-11  1.99437E-12  7.12201E+04  0.00000E+00  1.0E-05
  4.750E-04  1.71823E-11  1.99433E-12  7.12189E+04  0.00000E+00  1.0E-05
  5.000E-04  1.90386E-11  1.99430E-12  7.12177E+04  0.00000E+00  1.0E-05
  5.250E-04  2.09900E-11  1.99426E-12  7.12164E+04  0.00000E+00  1.0E-05
  5.500E-04  2.30367E-11  1.99423E-12  7.12151E+04  0.00000E+00  1.0E-05
  5.750E-04  2.51785E-11  1.99419E-12  7.12137E+04  0.00000E+00  1.0E-05
  6.000E-04  2.74156E-11  1.99415E-12  7.12122E+04  0.00000E+00  1.0E-05
  6.250E-04  2.97478E-11  1.99410E-12  7.12107E+04  0.00000E+00  1.0E-05
  6.500E-04  3.21752E-11  1.99406E-12  7.12091E+04  0.00000E+00  1.0E-05
  6.750E-04  3.46979E-11  1.99401E-12  7.12075E+04  0.00000E+00  1.0E-05
  7.000E-04  3.73157E-11  1.99396E-12  7.12058E+04  0.00000E+00  1.0E-05
  7.250E-04  4.00286E-11  1.99391E-12  7.12040E+04  0.00000E+00  1.0E-05
  7.500E-04  4.28368E-11  1.99386E-12  7.12022E+04  0.00000E+00  1.0E-05
  7.750E-04  4.57402E-11  1.99381E-12  7.12003E+04  0.00000E+00  1.0E-05
  8.000E-04  4.87388E-11  1.99376E-12  7.11983E+04  0.00000E+00  1.0E-05
  8.250E-04  5.18325E-11  1.99370E-12  7.11963E+04  0.00000E+00  1.0E-05
  8.500E-04  5.50215E-11  1.99364E-12  7.11942E+04  0.00000E+00  1.0E-05
  8.750E-04  5.83057E-11  1.99358E-12  7.11920E+04  0.00000E+00  1.0E-05
  9.000E-04  6.16850E-11  1.99352E-12  7.11898E+04  0.00000E+00  1.0E-05
  9.250E-04  6.51595E-11  1.99345E-12  7.11876E+04  0.00000E+00  1.0E-05
  9.500E-04  6.87293E-11  1.99339E-12  7.11852E+04  0.00000E+00  1.0E-05
  9.750E-04  7.23943E-11  1.99332E-12  7.11828E+04  0.00000E+00  1.0E-05
  1.000E-03  7.61544E-11  1.99325E-12  7.11804E+04  0.00000E+00  1.0E-05
  1.250E-03  1.18991E-10  1.99247E-12  7.11524E+04  0.00000E+00  1.0E-05
  1.500E-03  1.71347E-10  1.99151E-12  7.11182E+04  0.00000E+00  1.0E-05
  1.750E-03  2.33223E-10  1.99038E-12  7.10778E+04  0.00000E+00  1.0E-05
  2.000E-03  3.04617E-10  1.98908E-12  7.10312E+04  0.00000E+00  1.0E-05
  2.250E-03  3.85531E-10  1.98760E-12  7.09785E+04  0.00000E+00  1.0E-05
  2.500E-03  4.75965E-10  1.98595E-12  7.09197E+04  0.00000E+00  1.0E-05
  2.750E-03  5.75917E-10  1.98414E-12  7.08548E+04  0.00000E+00  1.0E-05
  3.000E-03  6.85389E-10  1.98215E-12  7.07838E+04  0.00000E+00  1.0E-05
  3.250E-03  8.04380E-10  1.97999E-12  7.07068E+04  0.00000E+00  1.0E-05
  3.500E-03  9.32891E-10  1.97767E-12  7.06238E+04  0.00000E+00  1.0E-05
  3.750E-03  1.07092E-09  1.97518E-12  7.05348E+04  0.00000E+00  1.0E-05
  4.000E-03  1.21847E-09  1.97252E-12  7.04399E+04  0.00000E+00  1.0E-05
  4.250E-03  1.37554E-09  1.96970E-12  7.03391E+04  0.00000E+00  1.0E-05
  4.500E-03  1.54213E-09  1.96671E-12  7.02325E+04  0.00000E+00  1.0E-05
  4.750E-03  1.71823E-09  1.96356E-12  7.01202E+04  0.00000E+00  1.0E-05
  5.000E-03  1.90386E-09  1.96026E-12  7.00021E+04  0.00000E+00  1.0E-05
  5.250E-03  2.09900E-09  1.95679E-12  6.98783E+04  0.00000E+00  1.0E-05
  5.500E-03  2.30367E-09  1.95317E-12  6.97489E+04  0.00000E+00  1.0E-05
  5.750E-03  2.51785E-09  1.94939E-12  6.96139E+04  0.00000E+00  1.0E-05
  6.000E-03  2.74156E-09  1.94546E-12  6.94735E+04  0.00000E+00  1.0E-05
  6.250E-03  2.97478E-09  1.94137E-12  6.93276E+04  0.00000E+00  1.0E-05
  6.500E-03  3.21752E-09  1.93713E-12  6.91763E+04  0.00000E+00  1.0E-05
  6.750E-03  3.46978E-09  1.93275E-12  6.90197E+04  0.00000E+00  1.0E-05
  7.000E-03  3.73156E-09  1.92822E-12  6.88579E+04  0.00000E+00  1.0E-05
  7.250E-03  4.00286E-09  1.92354E-12  6.86909E+04  0.00000E+00  1.0E-05
  7.500E-03  4.28368E-09  1.91872E-12  6.85188E+04  0.00000E+00  1.0E-05
  7.750E-03  4.57402E-09  1.91376E-12  6.83416E+04  0.00000E+00  1.0E-05
  8.000E-03  4.87388E-09  1.90866E-12  6.81596E+04  0.00000E+00  1.0E-05
  8.250E-03  5.18326E-09  1.90343E-12  6.79726E+04  0.00000E+00  1.0E-05
  8.500E-03  5.50215E-09  1.89806E-12  6.77809E+04  0.00000E+00  1.0E-05
  8.750E-03  5.83057E-09  1.89256E-12  6.75844E+04  0.00000E+00  1.0E-05
  9.000E-03  6.16850E-09  1.88693E-12  6.73833E+04  0.00000E+00  1.0E-05
  9.250E-03  6.51596E-09  1.88117E-12  6.71777E+04  0.00000E+00  1.0E-05
  9.500E-03  6.87293E-09  1.87528E-12  6.69676E+04  0.00000E+00  1.0E-05
  9.750E-03  7.23942E-09  1.86928E-12  6.67531E+04  0.00000E+00  1.0E-05
  1.000E-02  7.61544E-09  1.86315E-12  6.65344E+04  0.00000E+00  1.0E-05
  1.250E-02  1.18991E-08  1.79584E-12  6.41306E+04  0.00000E+00  1.0E-05
  1.500E-02  1.71347E-08  1.71951E-12  6.14048E+04  0.00000E+00  1.0E-05
  1.750E-02  2.33223E-08  1.63652E-12  5.84413E+04  0.00000E+00  1.0E-05
  2.000E-02  3.04617E-08  1.54945E-12  5.53318E+04  0.00000E+00  1.0E-05
  2.250E-02  3.85531E-08  1.46085E-12  5.21680E+04  0.00000E+00  1.0E-05
  2.500E-02  4.75965E-08  1.37267E-12  4.90190E+04  0.00000E+00  1.0E-05
  2.750E-02  5.75917E-08  1.28631E-12  4.59350E+04  0.00000E+00  1.0E-05
  3.000E-02  6.85389E-08  1.20299E-12  4.29596E+04  0.00000E+00  1.0E-05
  3.250E-02  8.04380E-08  1.12379E-12  4.01311E+04  0.00000E+00  1.0E-05
  3.500E-02  9.32891E-08  1.04930E-12  3.74712E+04  0.00000E+00  1.0E-05
  3.750E-02  1.07092E-07  9.79561E-13  3.49807E+04  0.00000E+00  1.0E-05
  4.000E-02  1.21847E-07  9.14680E-13  3.26638E+04  0.00000E+00  1.0E-05
  4.250E-02  1.37554E-07  8.54675E-13  3.05210E+04  0.00000E+00  1.0E-05
  4.500E-02  1.54213E-07  7.99453E-13  2.85490E+04  0.00000E+00  1.0E-05
  4.750E-02  1.71823E-07  7.48558E-13  2.67315E+04  0.00000E+00  1.0E-05
  5.000E-02  1.90386E-07  7.01730E-13  2.50592E+04  0.00000E+00  1.0E-05
  5.250E-02  2.09900E-07  6.58686E-13  2.35221E+04  0.00000E+00  1.0E-05
  5.500E-02  2.30367E-07  6.19115E-13  2.21090E+04  0.00000E+00  1.0E-05
  5.750E-02  2.51785E-07  5.82653E-13  2.08069E+04  0.00000E+00  1.0E-05
  6.000E-02  2.74156E-07  5.49038E-13  1.96065E+04  0.00000E+00  1.0E-05
  6.250E-02  2.97478E-07  5.18018E-13  1.84988E+04  0.00000E+00  1.0E-05
  6.500E-02  3.21752E-07  4.89264E-13  1.74719E+04  0.00000E+00  1.0E-05
  6.750E-02  3.46978E-07  4.62592E-13  1.65195E+04  0.00000E+00  1.0E-05
  7.000E-02  3.73156E-07  4.37835E-13  1.56354E+04  0.00000E+00  1.0E-05
  7.250E-02  4.00286E-07  4.14819E-13  1.48134E+04  0.00000E+00  1.0E-05
  7.500E-02  4.28368E-07  3.93299E-13  1.40450E+04  0.00000E+00  1.0E-05
  7.750E-02  4.57402E-07  3.73161E-13  1.33258E+04  0.00000E+00  1.0E-05
  8.000E-02  4.87388E-07  3.54336E-13  1.26536E+04  0.00000E+00  1.0E-05
  8.250E-02  5.18325E-07  3.36716E-13  1.20243E+04  0.00000E+00  1.0E-05
  8.500E-02  5.50215E-07  3.20142E-13  1.14325E+04  0.00000E+00  1.0E-05
  8.750E-02  5.83057E-07  3.04507E-13  1.08741E+04  0.00000E+00  1.0E-05
  9.000E-02  6.16850E-07  2.89814E-13  1.03494E+04  0.00000E+00  1.0E-05
  9.250E-02  6.51596E-07  2.75992E-13  9.85585E+03  0.00000E+00  1.0E-05
  9.500E-02  6.87293E-07  2.62949E-13  9.39006E+03  0.00000E+00  1.0E-05
  9.750E-02  7.23942E-07  2.50568E-13  8.94795E+03  0.00000E+00  1.0E-05
  1.000E-01  7.61543E-07  2.38892E-13  8.53100E+03  0.00000E+00  1.0E-05
  1.250E-01  1.18991E-06  1.51263E-13  5.40172E+03  0.00000E+00  1.0E-05
  1.500E-01  1.71347E-06  9.78443E-14  3.49408E+03  0.00000E+00  1.0E-05
  1.750E-01  2.33223E-06  6.66793E-14  2.38116E+03  0.00000E+00  1.0E-05
  2.000E-01  3.04617E-06  4.69908E-14  1.67807E+03  0.00000E+00  1.0E-05
  2.250E-01  3.85531E-06  3.39203E-14  1.21131E+03  0.00000E+00  1.0E-05
  2.500E-01  4.75964E-06  2.51134E-14  8.96816E+02  0.00000E+00  1.0E-05
  2.750E-01  5.75916E-06  1.90470E-14  6.80180E+02  0.00000E+00  1.0E-05
  3.000E-01  6.85388E-06  1.47372E-14  5.26275E+02  0.00000E+00  1.0E-05
  3.250E-01  8.04378E-06  1.15781E-14  4.13463E+02  0.00000E+00  1.0E-05
  3.500E-01  9.32888E-06  9.22113E-15  3.29292E+02  0.00000E+00  1.0E-05
  3.750E-01  1.07092E-05  7.45010E-15  2.66048E+02  0.00000E+00  1.0E-05
  4.000E-01  1.21846E-05  6.09509E-15  2.17660E+02  0.00000E+00  1.0E-05
  4.250E-01  1.37553E-05  5.03988E-15  1.79977E+02  0.00000E+00  1.0E-05
  4.500E-01  1.54212E-05  4.20316E-15  1.50098E+02  0.00000E+00  1.0E-05
  4.750E-01  1.71822E-05  3.53782E-15  1.26338E+02  0.00000E+00  1.0E-05
  5.000E-01  1.90385E-05  2.99981E-15  1.07125E+02  0.00000E+00  1.0E-05
  5.250E-01  2.09899E-05  2.56616E-15  9.16392E+01  0.00000E+00  1.0E-05
  5.500E-01  2.30365E-05  2.20566E-15  7.87657E+01  0.00000E+00  1.0E-05
  5.750E-01  2.51783E-05  1.90642E-15  6.80797E+01  0.00000E+00  1.0E-05
  6.000E-01  2.74153E-05  1.65615E-15  5.91422E+01  0.00000E+00  1.0E-05
  6.250E-01  2.97475E-05  1.44561E-15  5.16236E+01  0.00000E+00  1.0E-05
  6.500E-01  3.21749E-05  1.26719E-15  4.52523E+01  0.00000E+00  1.0E-05
  6.750E-01  3.46974E-05  1.11455E-15  3.98012E+01  0.00000E+00  1.0E-05
  7.000E-01  3.73152E-05  9.84187E-16  3.51459E+01  0.00000E+00  1.0E-05
  7.250E-01  4.00281E-05  8.72596E-16  3.11610E+01  0.00000E+00  1.0E-05
  7.500E-01  4.28362E-05  7.76339E-16  2.77236E+01  0.00000E+00  1.0E-05
  7.750E-01  4.57395E-05  6.93058E-16  2.47496E+01  0.00000E+00  1.0E-05
  8.000E-01  4.87380E-05  6.20778E-16  2.21684E+01  0.00000E+00  1.0E-05
  8.250E-01  5.18317E-05  5.57760E-16  1.99180E+01  0.00000E+00  1.0E-05
  8.500E-01  5.50205E-05  5.02502E-16  1.79447E+01  0.00000E+00  1.0E-05
  8.750E-01  5.83045E-05  4.53865E-16  1.62078E+01  0.00000E+00  1.0E-05
  9.000E-01  6.16838E-05  4.11030E-16  1.46782E+01  0.00000E+00  1.0E-05
  9.250E-01  6.51582E-05  3.73182E-16  1.33266E+01  0.00000E+00  1.0E-05
  9.500E-01  6.87277E-05  3.39614E-16  1.21278E+01  0.00000E+00  1.0E-05
  9.750E-01  7.23925E-05  3.09719E-16  1.10603E+01  0.00000E+00  1.0E-05
  1.000E+00  7.61524E-05  2.83088E-16  1.01093E+01  0.00000E+00  1.2E-05
  1.100E+00  9.21439E-05  2.01596E-16  7.19913E+00  0.00000E+00  8.6E-06
  1.200E+00  1.09658E-04  1.47583E-16  5.27028E+00  0.00000E+00  4.7E-06
  1.300E+00  1.28695E-04  1.10528E-16  3.94702E+00  0.00000E+00  9.5E-07
  1.400E+00  1.49255E-04  8.43504E-17  3.01221E+00  0.00000E+00  1.8E-06
  1.500E+00  1.71338E-04  6.55533E-17  2.34095E+00  0.00000E+00  3.3E-06
  1.600E+00  1.94942E-04  5.17438E-17  1.84781E+00  0.00000E+00  3.6E-06
  1.700E+00  2.20070E-04  4.13999E-17  1.47842E+00  0.00000E+00  2.9E-06
  1.800E+00  2.46720E-04  3.35146E-17  1.19683E+00  0.00000E+00  1.6E-06
  1.900E+00  2.74892E-04  2.74407E-17  9.79926E-01  0.00000E+00  2.6E-07
  2.000E+00  3.04586E-04  2.26947E-17  8.10441E-01  0.00000E+00  8.4E-07
  2.100E+00  3.35803E-04  1.89404E-17  6.76372E-01  0.00000E+00  1.5E-06
  2.200E+00  3.68542E-04  1.59277E-17  5.68789E-01  0.00000E+00  1.6E-06
  2.300E+00  4.02802E-04  1.34950E-17  4.81917E-01  0.00000E+00  1.3E-06
  2.400E+00  4.38585E-04  1.15118E-17  4.11095E-01  0.00000E+00  7.3E-07
  2.500E+00  4.75889E-04  9.88071E-18  3.52847E-01  0.00000E+00  1.0E-07
  2.600E+00  5.14715E-04  8.52640E-18  3.04483E-01  0.00000E+00  4.8E-07
  2.700E+00  5.55063E-04  7.39604E-18  2.64118E-01  0.00000E+00  8.2E-07
  2.800E+00  5.96931E-04  6.44718E-18  2.30233E-01  0.00000E+00  8.8E-07
  2.900E+00  6.40321E-04  5.64575E-18  2.01614E-01  0.00000E+00  7.1E-07
  3.000E+00  6.85233E-04  4.96413E-18  1.77272E-01  0.00000E+00  3.9E-07
  3.100E+00  7.31665E-04  4.38204E-18  1.56486E-01  0.00000E+00  1.0E-07
  3.200E+00  7.79618E-04  3.88292E-18  1.38661E-01  0.00000E+00  3.1E-07
  3.300E+00  8.29092E-04  3.45299E-18  1.23308E-01  0.00000E+00  5.1E-07
  3.400E+00  8.80086E-04  3.08075E-18  1.10015E-01  0.00000E+00  5.4E-07
  3.500E+00  9.32601E-04  2.75726E-18  9.84635E-02  0.00000E+00  4.3E-07
  3.600E+00  9.86636E-04  2.47528E-18  8.83939E-02  0.00000E+00  2.3E-07
  3.700E+00  1.04219E-03  2.22855E-18  7.95830E-02  0.00000E+00  1.0E-07
  3.800E+00  1.09927E-03  2.01188E-18  7.18457E-02  0.00000E+00  2.2E-07
  3.900E+00  1.15786E-03  1.82090E-18  6.50254E-02  0.00000E+00  3.4E-07
  4.000E+00  1.21797E-03  1.65216E-18  5.89996E-02  0.00000E+00  3.6E-07
  4.100E+00  1.27961E-03  1.50262E-18  5.36595E-02  0.00000E+00  2.8E-07
  4.200E+00  1.34276E-03  1.36971E-18  4.89133E-02  0.00000E+00  1.4E-07
  4.300E+00  1.40743E-03  1.25117E-18  4.46801E-02  0.00000E+00  1.0E-07
  4.400E+00  1.47362E-03  1.14525E-18  4.08978E-02  0.00000E+00  1.6E-07
  4.500E+00  1.54133E-03  1.05038E-18  3.75099E-02  0.00000E+00  2.4E-07
  4.600E+00  1.61056E-03  9.65190E-19  3.44675E-02  0.00000E+00  2.5E-07
  4.700E+00  1.68131E-03  8.88465E-19  3.17277E-02  0.00000E+00  1.9E-07
  4.800E+00  1.75357E-03  8.19257E-19  2.92562E-02  0.00000E+00  1.0E-07
  4.900E+00  1.82735E-03  7.56695E-19  2.70221E-02  0.00000E+00  1.0E-07
  5.000E+00  1.90265E-03  7.00025E-19  2.49983E-02  0.00000E+00  1.3E-07
  5.100E+00  1.97947E-03  6.48571E-19  2.31609E-02  0.00000E+00  1.8E-07
  5.200E+00  2.05780E-03  6.01775E-19  2.14898E-02  0.00000E+00  1.8E-07
  5.300E+00  2.13765E-03  5.59145E-19  1.99674E-02  0.00000E+00  1.4E-07
  5.400E+00  2.21902E-03  5.20244E-19  1.85782E-02  0.00000E+00  1.0E-07
  5.500E+00  2.30190E-03  4.84675E-19  1.73080E-02  0.00000E+00  1.0E-07
  5.600E+00  2.38630E-03  4.52097E-19  1.61447E-02  0.00000E+00  1.0E-07
  5.700E+00  2.47222E-03  4.22225E-19  1.50779E-02  0.00000E+00  1.4E-07
  5.800E+00  2.55965E-03  3.94791E-19  1.40982E-02  0.00000E+00  1.4E-07
  5.900E+00  2.64859E-03  3.69555E-19  1.31970E-02  0.00000E+00  1.0E-07
  6.000E+00  2.73905E-03  3.46303E-19  1.23667E-02  0.00000E+00  1.0E-07
  6.100E+00  2.83103E-03  3.24859E-19  1.16009E-02  0.00000E+00  1.0E-07
  6.200E+00  2.92452E-03  3.05056E-19  1.08937E-02  0.00000E+00  1.0E-07
  6.300E+00  3.01952E-03  2.86744E-19  1.02398E-02  0.00000E+00  1.1E-07
  6.400E+00  3.11604E-03  2.69784E-19  9.63415E-03  0.00000E+00  1.1E-07
  6.500E+00  3.21407E-03  2.54064E-19  9.07279E-03  0.00000E+00  1.0E-07
  6.600E+00  3.31362E-03  2.39477E-19  8.55187E-03  0.00000E+00  1.0E-07
  6.700E+00  3.41468E-03  2.25926E-19  8.06796E-03  0.00000E+00  1.0E-07
  6.800E+00  3.51725E-03  2.13318E-19  7.61774E-03  0.00000E+00  1.0E-07
  6.900E+00  3.62133E-03  2.01581E-19  7.19860E-03  0.00000E+00  1.0E-07
  7.000E+00  3.72692E-03  1.90643E-19  6.80800E-03  0.00000E+00  1.0E-07
  7.100E+00  3.83403E-03  1.80440E-19  6.44364E-03  0.00000E+00  1.0E-07
  7.200E+00  3.94265E-03  1.70910E-19  6.10332E-03  0.00000E+00  1.0E-07
  7.300E+00  4.05278E-03  1.62003E-19  5.78524E-03  0.00000E+00  1.0E-07
  7.400E+00  4.16442E-03  1.53671E-19  5.48770E-03  0.00000E+00  1.0E-07
  7.500E+00  4.27757E-03  1.45870E-19  5.20911E-03  0.00000E+00  1.0E-07
  7.600E+00  4.39223E-03  1.38558E-19  4.94801E-03  0.00000E+00  1.0E-07
  7.700E+00  4.50840E-03  1.31700E-19  4.70310E-03  0.00000E+00  1.0E-07
  7.800E+00  4.62608E-03  1.25263E-19  4.47322E-03  0.00000E+00  1.0E-07
  7.900E+00  4.74527E-03  1.19216E-19  4.25728E-03  0.00000E+00  1.0E-07
  8.000E+00  4.86597E-03  1.13531E-19  4.05425E-03  0.00000E+00  1.0E-07
  8.100E+00  4.98817E-03  1.08181E-19  3.86321E-03  0.00000E+00  1.0E-07
  8.200E+00  5.11188E-03  1.03144E-19  3.68334E-03  0.00000E+00  1.0E-07
  8.300E+00  5.23711E-03  9.83984E-20  3.51387E-03  0.00000E+00  1.0E-07
  8.400E+00  5.36383E-03  9.39238E-20  3.35408E-03  0.00000E+00  1.0E-07
  8.500E+00  5.49207E-03  8.97012E-20  3.20329E-03  0.00000E+00  1.0E-07
  8.600E+00  5.62181E-03  8.57145E-20  3.06092E-03  0.00000E+00  1.0E-07
  8.700E+00  5.75306E-03  8.19482E-20  2.92642E-03  0.00000E+00  1.0E-07
  8.800E+00  5.88581E-03  7.83877E-20  2.79928E-03  0.00000E+00  1.0E-07
  8.900E+00  6.02007E-03  7.50189E-20  2.67897E-03  0.00000E+00  1.0E-07
  9.000E+00  6.15583E-03  7.18303E-20  2.56511E-03  0.00000E+00  1.0E-07
  9.100E+00  6.29310E-03  6.88104E-20  2.45726E-03  0.00000E+00  1.0E-07
  9.200E+00  6.43187E-03  6.59486E-20  2.35507E-03  0.00000E+00  1.0E-07
  9.300E+00  6.57214E-03  6.32347E-20  2.25815E-03  0.00000E+00  1.0E-07
  9.400E+00  6.71392E-03  6.06598E-20  2.16620E-03  0.00000E+00  1.0E-07
  9.500E+00  6.85720E-03  5.82156E-20  2.07892E-03  0.00000E+00  1.0E-07
  9.600E+00  7.00198E-03  5.58942E-20  1.99602E-03  0.00000E+00  1.0E-07
  9.700E+00  7.14827E-03  5.36881E-20  1.91724E-03  0.00000E+00  1.0E-07
  9.800E+00  7.29605E-03  5.15904E-20  1.84233E-03  0.00000E+00  1.0E-07
  9.900E+00  7.44534E-03  4.95951E-20  1.77107E-03  0.00000E+00  1.0E-07
  1.000E+01  7.59612E-03  4.76960E-20  1.70326E-03  0.00000E+00  1.0E-07
  1.025E+01  7.97965E-03  4.33342E-20  1.54749E-03  0.00000E+00  1.0E-07
  1.050E+01  8.37255E-03  3.94637E-20  1.40927E-03  0.00000E+00  1.0E-07
  1.075E+01  8.77480E-03  3.60194E-20  1.28628E-03  0.00000E+00  1.0E-07
  1.100E+01  9.18641E-03  3.29462E-20  1.17653E-03  0.00000E+00  1.0E-07
  1.125E+01  9.60736E-03  3.01971E-20  1.07836E-03  0.00000E+00  1.0E-07
  1.150E+01  1.00376E-02  2.77318E-20  9.90321E-04  0.00000E+00  1.0E-07
  1.175E+01  1.04773E-02  2.55158E-20  9.11186E-04  0.00000E+00  1.0E-07
  1.200E+01  1.09262E-02  2.35194E-20  8.39893E-04  0.00000E+00  1.0E-07
  1.225E+01  1.13844E-02  2.17169E-20  7.75524E-04  0.00000E+00  1.0E-07
  1.250E+01  1.18520E-02  2.00860E-20  7.17286E-04  0.00000E+00  1.0E-07
  1.275E+01  1.23288E-02  1.86076E-20  6.64489E-04  0.00000E+00  1.0E-07
  1.300E+01  1.28150E-02  1.72646E-20  6.16532E-04  0.00000E+00  1.0E-07
  1.325E+01  1.33104E-02  1.60424E-20  5.72886E-04  0.00000E+00  1.0E-07
  1.350E+01  1.38150E-02  1.49284E-20  5.33103E-04  0.00000E+00  1.0E-07
  1.375E+01  1.43290E-02  1.39110E-20  4.96770E-04  0.00000E+00  1.0E-07
  1.400E+01  1.48521E-02  1.29803E-20  4.63534E-04  0.00000E+00  1.0E-07
  1.425E+01  1.53845E-02  1.21276E-20  4.33084E-04  0.00000E+00  1.0E-07
  1.450E+01  1.59262E-02  1.13452E-20  4.05143E-04  0.00000E+00  1.0E-07
  1.475E+01  1.64770E-02  1.06261E-20  3.79464E-04  0.00000E+00  1.0E-07
  1.500E+01  1.70371E-02  9.96423E-21  3.55829E-04  0.00000E+00  1.0E-07
  1.525E+01  1.76063E-02  9.35427E-21  3.34047E-04  0.00000E+00  1.0E-07
