 #
 # Subroutine ELSEPA. Elastic scattering of electrons and positrons
 #                    by neutral atoms and positive ions
 #
 # Projectile: electron
 # Kinetic energy = 3.70000E+06 eV = 1.35973E+05 a.u.
 #
 # WARNING: High-energy factorization with free-atom DF screening.
 #          Absorption, polarization and exchange corrections are
 #          switched off.
 #          Phase shifts are calculated for the bare nucleus.
 #          Scattering amplitudes are not evaluated.
 #
 # Element: As,  Z =  33,  atomic weight = 7.49216E+01 g/mol
 #
 # Nuclear model: Fermi distribution
 #                Average radius = 4.51079E-13 cm
 #                Skin thickness = 5.46000E-14 cm
 #
 # Number of electrons = 33
 #
 # Total elastic cross section = 2.52725E-18 cm**2 = 9.02497E-02 a0**2
 # 1st transport cross section = 9.41298E-23 cm**2 = 3.36144E-06 a0**2
 # 2nd transport cross section = 2.65162E-22 cm**2 = 9.46912E-06 a0**2
 #
 #
 # Differential cross section:                       MU=(1-COS(THETA))/2
 #
 #  THETA        MU          DCS          DCS        Sherman      error
 #  (deg)                 (cm**2/sr)   (a0**2/sr)    function
 #----------------------------------------------------------------------
  0.000E+00  0.00000E+00  3.60519E-13  1.28744E+04  0.00000E+00  1.0E-05
  1.000E-04  7.61557E-13  3.60518E-13  1.28743E+04  0.00000E+00  1.0E-05
  1.250E-04  1.18994E-12  3.60517E-13  1.28743E+04  0.00000E+00  1.0E-05
  1.500E-04  1.71346E-12  3.60516E-13  1.28743E+04  0.00000E+00  1.0E-05
  1.750E-04  2.33225E-12  3.60515E-13  1.28742E+04  0.00000E+00  1.0E-05
  2.000E-04  3.04617E-12  3.60514E-13  1.28742E+04  0.00000E+00  1.0E-05
  2.250E-04  3.85530E-12  3.60512E-13  1.28741E+04  0.00000E+00  1.0E-05
  2.500E-04  4.75964E-12  3.60511E-13  1.28741E+04  0.00000E+00  1.0E-05
  2.750E-04  5.75917E-12  3.60509E-13  1.28740E+04  0.00000E+00  1.0E-05
  3.000E-04  6.85391E-12  3.60507E-13  1.28739E+04  0.00000E+00  1.0E-05
  3.250E-04  8.04379E-12  3.60505E-13  1.28739E+04  0.00000E+00  1.0E-05
  3.500E-04  9.32893E-12  3.60503E-13  1.28738E+04  0.00000E+00  1.0E-05
  3.750E-04  1.07092E-11  3.60500E-13  1.28737E+04  0.00000E+00  1.0E-05
  4.000E-04  1.21847E-11  3.60498E-13  1.28736E+04  0.00000E+00  1.0E-05
  4.250E-04  1.37554E-11  3.60495E-13  1.28735E+04  0.00000E+00  1.0E-05
  4.500E-04  1.54213E-11  3.60492E-13  1.28734E+04  0.00000E+00  1.0E-05
  4.750E-04  1.71823E-11  3.60489E-13  1.28733E+04  0.00000E+00  1.0E-05
  5.000E-04  1.90386E-11  3.60486E-13  1.28732E+04  0.00000E+00  1.0E-05
  5.250E-04  2.09900E-11  3.60482E-13  1.28731E+04  0.00000E+00  1.0E-05
  5.500E-04  2.30367E-11  3.60479E-13  1.28729E+04  0.00000E+00  1.0E-05
  5.750E-04  2.51785E-11  3.60475E-13  1.28728E+04  0.00000E+00  1.0E-05
  6.000E-04  2.74156E-11  3.60471E-13  1.28727E+04  0.00000E+00  1.0E-05
  6.250E-04  2.97478E-11  3.60467E-13  1.28725E+04  0.00000E+00  1.0E-05
  6.500E-04  3.21752E-11  3.60463E-13  1.28724E+04  0.00000E+00  1.0E-05
  6.750E-04  3.46979E-11  3.60458E-13  1.28722E+04  0.00000E+00  1.0E-05
  7.000E-04  3.73157E-11  3.60454E-13  1.28720E+04  0.00000E+00  1.0E-05
  7.250E-04  4.00286E-11  3.60449E-13  1.28719E+04  0.00000E+00  1.0E-05
  7.500E-04  4.28368E-11  3.60444E-13  1.28717E+04  0.00000E+00  1.0E-05
  7.750E-04  4.57402E-11  3.60439E-13  1.28715E+04  0.00000E+00  1.0E-05
  8.000E-04  4.87388E-11  3.60434E-13  1.28713E+04  0.00000E+00  1.0E-05
  8.250E-04  5.18325E-11  3.60428E-13  1.28711E+04  0.00000E+00  1.0E-05
  8.500E-04  5.50215E-11  3.60422E-13  1.28709E+04  0.00000E+00  1.0E-05
  8.750E-04  5.83057E-11  3.60417E-13  1.28707E+04  0.00000E+00  1.0E-05
  9.000E-04  6.16850E-11  3.60411E-13  1.28705E+04  0.00000E+00  1.0E-05
  9.250E-04  6.51595E-11  3.60405E-13  1.28703E+04  0.00000E+00  1.0E-05
  9.500E-04  6.87293E-11  3.60398E-13  1.28701E+04  0.00000E+00  1.0E-05
  9.750E-04  7.23943E-11  3.60392E-13  1.28698E+04  0.00000E+00  1.0E-05
  1.000E-03  7.61544E-11  3.60385E-13  1.28696E+04  0.00000E+00  1.0E-05
  1.250E-03  1.18991E-10  3.60310E-13  1.28669E+04  0.00000E+00  1.0E-05
  1.500E-03  1.71347E-10  3.60218E-13  1.28636E+04  0.00000E+00  1.0E-05
  1.750E-03  2.33223E-10  3.60109E-13  1.28597E+04  0.00000E+00  1.0E-05
  2.000E-03  3.04617E-10  3.59984E-13  1.28553E+04  0.00000E+00  1.0E-05
  2.250E-03  3.85531E-10  3.59842E-13  1.28502E+04  0.00000E+00  1.0E-05
  2.500E-03  4.75965E-10  3.59684E-13  1.28445E+04  0.00000E+00  1.0E-05
  2.750E-03  5.75917E-10  3.59508E-13  1.28383E+04  0.00000E+00  1.0E-05
  3.000E-03  6.85389E-10  3.59317E-13  1.28314E+04  0.00000E+00  1.0E-05
  3.250E-03  8.04380E-10  3.59108E-13  1.28240E+04  0.00000E+00  1.0E-05
  3.500E-03  9.32891E-10  3.58884E-13  1.28160E+04  0.00000E+00  1.0E-05
  3.750E-03  1.07092E-09  3.58642E-13  1.28074E+04  0.00000E+00  1.0E-05
  4.000E-03  1.21847E-09  3.58385E-13  1.27982E+04  0.00000E+00  1.0E-05
  4.250E-03  1.37554E-09  3.58111E-13  1.27884E+04  0.00000E+00  1.0E-05
  4.500E-03  1.54213E-09  3.57821E-13  1.27780E+04  0.00000E+00  1.0E-05
  4.750E-03  1.71823E-09  3.57515E-13  1.27671E+04  0.00000E+00  1.0E-05
  5.000E-03  1.90386E-09  3.57193E-13  1.27556E+04  0.00000E+00  1.0E-05
  5.250E-03  2.09900E-09  3.56854E-13  1.27435E+04  0.00000E+00  1.0E-05
  5.500E-03  2.30367E-09  3.56500E-13  1.27308E+04  0.00000E+00  1.0E-05
  5.750E-03  2.51785E-09  3.56129E-13  1.27176E+04  0.00000E+00  1.0E-05
  6.000E-03  2.74156E-09  3.55743E-13  1.27038E+04  0.00000E+00  1.0E-05
  6.250E-03  2.97478E-09  3.55341E-13  1.26895E+04  0.00000E+00  1.0E-05
  6.500E-03  3.21752E-09  3.54924E-13  1.26746E+04  0.00000E+00  1.0E-05
  6.750E-03  3.46978E-09  3.54491E-13  1.26591E+04  0.00000E+00  1.0E-05
  7.000E-03  3.73156E-09  3.54042E-13  1.26431E+04  0.00000E+00  1.0E-05
  7.250E-03  4.00286E-09  3.53578E-13  1.26265E+04  0.00000E+00  1.0E-05
  7.500E-03  4.28368E-09  3.53099E-13  1.26094E+04  0.00000E+00  1.0E-05
  7.750E-03  4.57402E-09  3.52604E-13  1.25917E+04  0.00000E+00  1.0E-05
  8.000E-03  4.87388E-09  3.52094E-13  1.25735E+04  0.00000E+00  1.0E-05
  8.250E-03  5.18326E-09  3.51570E-13  1.25548E+04  0.00000E+00  1.0E-05
  8.500E-03  5.50215E-09  3.51030E-13  1.25355E+04  0.00000E+00  1.0E-05
  8.750E-03  5.83057E-09  3.50476E-13  1.25157E+04  0.00000E+00  1.0E-05
  9.000E-03  6.16850E-09  3.49907E-13  1.24954E+04  0.00000E+00  1.0E-05
  9.250E-03  6.51596E-09  3.49323E-13  1.24746E+04  0.00000E+00  1.0E-05
  9.500E-03  6.87293E-09  3.48725E-13  1.24532E+04  0.00000E+00  1.0E-05
  9.750E-03  7.23942E-09  3.48113E-13  1.24313E+04  0.00000E+00  1.0E-05
  1.000E-02  7.61544E-09  3.47486E-13  1.24090E+04  0.00000E+00  1.0E-05
  1.250E-02  1.18991E-08  3.40469E-13  1.21584E+04  0.00000E+00  1.0E-05
  1.500E-02  1.71347E-08  3.32137E-13  1.18608E+04  0.00000E+00  1.0E-05
  1.750E-02  2.33223E-08  3.22729E-13  1.15249E+04  0.00000E+00  1.0E-05
  2.000E-02  3.04617E-08  3.12413E-13  1.11565E+04  0.00000E+00  1.0E-05
  2.250E-02  3.85531E-08  3.01280E-13  1.07589E+04  0.00000E+00  1.0E-05
  2.500E-02  4.75965E-08  2.89517E-13  1.03388E+04  0.00000E+00  1.0E-05
  2.750E-02  5.75917E-08  2.77359E-13  9.90468E+03  0.00000E+00  1.0E-05
  3.000E-02  6.85389E-08  2.64977E-13  9.46250E+03  0.00000E+00  1.0E-05
  3.250E-02  8.04380E-08  2.52443E-13  9.01490E+03  0.00000E+00  1.0E-05
  3.500E-02  9.32891E-08  2.39853E-13  8.56530E+03  0.00000E+00  1.0E-05
  3.750E-02  1.07092E-07  2.27434E-13  8.12180E+03  0.00000E+00  1.0E-05
  4.000E-02  1.21847E-07  2.15283E-13  7.68790E+03  0.00000E+00  1.0E-05
  4.250E-02  1.37554E-07  2.03443E-13  7.26509E+03  0.00000E+00  1.0E-05
  4.500E-02  1.54213E-07  1.91892E-13  6.85258E+03  0.00000E+00  1.0E-05
  4.750E-02  1.71823E-07  1.80810E-13  6.45685E+03  0.00000E+00  1.0E-05
  5.000E-02  1.90386E-07  1.70229E-13  6.07898E+03  0.00000E+00  1.0E-05
  5.250E-02  2.09900E-07  1.60162E-13  5.71950E+03  0.00000E+00  1.0E-05
  5.500E-02  2.30367E-07  1.50515E-13  5.37500E+03  0.00000E+00  1.0E-05
  5.750E-02  2.51785E-07  1.41414E-13  5.05000E+03  0.00000E+00  1.0E-05
  6.000E-02  2.74156E-07  1.32850E-13  4.74414E+03  0.00000E+00  1.0E-05
  6.250E-02  2.97478E-07  1.24806E-13  4.45689E+03  0.00000E+00  1.0E-05
  6.500E-02  3.21752E-07  1.17208E-13  4.18557E+03  0.00000E+00  1.0E-05
  6.750E-02  3.46978E-07  1.10094E-13  3.93154E+03  0.00000E+00  1.0E-05
  7.000E-02  3.73156E-07  1.03454E-13  3.69439E+03  0.00000E+00  1.0E-05
  7.250E-02  4.00286E-07  9.72589E-14  3.47318E+03  0.00000E+00  1.0E-05
  7.500E-02  4.28368E-07  9.14581E-14  3.26603E+03  0.00000E+00  1.0E-05
  7.750E-02  4.57402E-07  8.60444E-14  3.07270E+03  0.00000E+00  1.0E-05
  8.000E-02  4.87388E-07  8.10086E-14  2.89287E+03  0.00000E+00  1.0E-05
  8.250E-02  5.18325E-07  7.63245E-14  2.72560E+03  0.00000E+00  1.0E-05
  8.500E-02  5.50215E-07  7.19564E-14  2.56961E+03  0.00000E+00  1.0E-05
  8.750E-02  5.83057E-07  6.78818E-14  2.42410E+03  0.00000E+00  1.0E-05
  9.000E-02  6.16850E-07  6.40940E-14  2.28884E+03  0.00000E+00  1.0E-05
  9.250E-02  6.51596E-07  6.05713E-14  2.16304E+03  0.00000E+00  1.0E-05
  9.500E-02  6.87293E-07  5.72897E-14  2.04585E+03  0.00000E+00  1.0E-05
  9.750E-02  7.23942E-07  5.42244E-14  1.93639E+03  0.00000E+00  1.0E-05
  1.000E-01  7.61543E-07  5.13710E-14  1.83449E+03  0.00000E+00  1.0E-05
  1.250E-01  1.18991E-06  3.13687E-14  1.12020E+03  0.00000E+00  1.0E-05
  1.500E-01  1.71347E-06  2.04848E-14  7.31526E+02  0.00000E+00  1.0E-05
  1.750E-01  2.33223E-06  1.42534E-14  5.08999E+02  0.00000E+00  1.0E-05
  2.000E-01  3.04617E-06  1.03231E-14  3.68646E+02  0.00000E+00  1.0E-05
  2.250E-01  3.85531E-06  7.61790E-15  2.72040E+02  0.00000E+00  1.0E-05
  2.500E-01  4.75964E-06  5.71027E-15  2.03917E+02  0.00000E+00  1.0E-05
  2.750E-01  5.75916E-06  4.35035E-15  1.55354E+02  0.00000E+00  1.0E-05
  3.000E-01  6.85388E-06  3.35626E-15  1.19854E+02  0.00000E+00  1.0E-05
  3.250E-01  8.04378E-06  2.60978E-15  9.31971E+01  0.00000E+00  1.0E-05
  3.500E-01  9.32888E-06  2.04571E-15  7.30538E+01  0.00000E+00  1.0E-05
  3.750E-01  1.07092E-05  1.62164E-15  5.79097E+01  0.00000E+00  1.0E-05
  4.000E-01  1.21846E-05  1.29857E-15  4.63728E+01  0.00000E+00  1.0E-05
  4.250E-01  1.37553E-05  1.04933E-15  3.74724E+01  0.00000E+00  1.0E-05
  4.500E-01  1.54212E-05  8.55030E-16  3.05337E+01  0.00000E+00  1.0E-05
  4.750E-01  1.71822E-05  7.03493E-16  2.51222E+01  0.00000E+00  1.0E-05
  5.000E-01  1.90385E-05  5.83973E-16  2.08540E+01  0.00000E+00  1.0E-05
  5.250E-01  2.09899E-05  4.88967E-16  1.74613E+01  0.00000E+00  1.0E-05
  5.500E-01  2.30365E-05  4.12482E-16  1.47300E+01  0.00000E+00  1.0E-05
  5.750E-01  2.51783E-05  3.50612E-16  1.25206E+01  0.00000E+00  1.0E-05
  6.000E-01  2.74153E-05  3.00117E-16  1.07174E+01  0.00000E+00  1.0E-05
  6.250E-01  2.97475E-05  2.58576E-16  9.23392E+00  0.00000E+00  1.0E-05
  6.500E-01  3.21749E-05  2.24115E-16  8.00328E+00  0.00000E+00  1.0E-05
  6.750E-01  3.46974E-05  1.95318E-16  6.97492E+00  0.00000E+00  1.0E-05
  7.000E-01  3.73152E-05  1.71114E-16  6.11060E+00  0.00000E+00  1.0E-05
  7.250E-01  4.00281E-05  1.50645E-16  5.37964E+00  0.00000E+00  1.0E-05
  7.500E-01  4.28362E-05  1.33206E-16  4.75687E+00  0.00000E+00  1.0E-05
  7.750E-01  4.57395E-05  1.18264E-16  4.22330E+00  0.00000E+00  1.0E-05
  8.000E-01  4.87380E-05  1.05401E-16  3.76394E+00  0.00000E+00  1.0E-05
  8.250E-01  5.18317E-05  9.42689E-17  3.36640E+00  0.00000E+00  1.0E-05
  8.500E-01  5.50205E-05  8.45785E-17  3.02035E+00  0.00000E+00  1.0E-05
  8.750E-01  5.83045E-05  7.61027E-17  2.71768E+00  0.00000E+00  1.0E-05
  9.000E-01  6.16838E-05  6.86714E-17  2.45230E+00  0.00000E+00  1.0E-05
  9.250E-01  6.51582E-05  6.21313E-17  2.21875E+00  0.00000E+00  1.0E-05
  9.500E-01  6.87277E-05  5.63515E-17  2.01235E+00  0.00000E+00  1.0E-05
  9.750E-01  7.23925E-05  5.12202E-17  1.82911E+00  0.00000E+00  1.0E-05
  1.000E+00  7.61524E-05  4.66606E-17  1.66628E+00  0.00000E+00  3.7E-06
  1.100E+00  9.21439E-05  3.27725E-17  1.17033E+00  0.00000E+00  2.8E-06
  1.200E+00  1.09658E-04  2.36524E-17  8.44643E-01  0.00000E+00  1.5E-06
  1.300E+00  1.28695E-04  1.74665E-17  6.23740E-01  0.00000E+00  2.8E-07
  1.400E+00  1.49255E-04  1.31502E-17  4.69604E-01  0.00000E+00  6.3E-07
  1.500E+00  1.71338E-04  1.00861E-17  3.60180E-01  0.00000E+00  1.1E-06
  1.600E+00  1.94942E-04  7.86004E-18  2.80687E-01  0.00000E+00  1.2E-06
  1.700E+00  2.20070E-04  6.21206E-18  2.21837E-01  0.00000E+00  9.2E-07
  1.800E+00  2.46720E-04  4.97200E-18  1.77553E-01  0.00000E+00  5.1E-07
  1.900E+00  2.74892E-04  4.02658E-18  1.43792E-01  0.00000E+00  1.0E-07
  2.000E+00  3.04586E-04  3.29580E-18  1.17695E-01  0.00000E+00  2.9E-07
  2.100E+00  3.35803E-04  2.72379E-18  9.72684E-02  0.00000E+00  4.9E-07
  2.200E+00  3.68542E-04  2.27066E-18  8.10868E-02  0.00000E+00  5.2E-07
  2.300E+00  4.02802E-04  1.90831E-18  6.81471E-02  0.00000E+00  4.2E-07
  2.400E+00  4.38585E-04  1.61572E-18  5.76986E-02  0.00000E+00  2.3E-07
  2.500E+00  4.75889E-04  1.37737E-18  4.91867E-02  0.00000E+00  1.0E-07
  2.600E+00  5.14715E-04  1.18147E-18  4.21912E-02  0.00000E+00  1.7E-07
  2.700E+00  5.55063E-04  1.01935E-18  3.64017E-02  0.00000E+00  2.7E-07
  2.800E+00  5.96931E-04  8.84229E-19  3.15764E-02  0.00000E+00  2.9E-07
  2.900E+00  6.40321E-04  7.70870E-19  2.75283E-02  0.00000E+00  2.3E-07
  3.000E+00  6.85233E-04  6.75155E-19  2.41102E-02  0.00000E+00  1.2E-07
  3.100E+00  7.31665E-04  5.93892E-19  2.12083E-02  0.00000E+00  1.0E-07
  3.200E+00  7.79618E-04  5.24546E-19  1.87319E-02  0.00000E+00  1.1E-07
  3.300E+00  8.29092E-04  4.65069E-19  1.66079E-02  0.00000E+00  1.7E-07
  3.400E+00  8.80086E-04  4.13810E-19  1.47774E-02  0.00000E+00  1.8E-07
  3.500E+00  9.32601E-04  3.69433E-19  1.31927E-02  0.00000E+00  1.4E-07
  3.600E+00  9.86636E-04  3.30869E-19  1.18156E-02  0.00000E+00  1.0E-07
  3.700E+00  1.04219E-03  2.97225E-19  1.06141E-02  0.00000E+00  1.0E-07
  3.800E+00  1.09927E-03  2.67759E-19  9.56186E-03  0.00000E+00  1.0E-07
  3.900E+00  1.15786E-03  2.41858E-19  8.63691E-03  0.00000E+00  1.1E-07
  4.000E+00  1.21797E-03  2.19023E-19  7.82146E-03  0.00000E+00  1.2E-07
  4.100E+00  1.27961E-03  1.98828E-19  7.10027E-03  0.00000E+00  1.0E-07
  4.200E+00  1.34276E-03  1.80913E-19  6.46051E-03  0.00000E+00  1.0E-07
  4.300E+00  1.40743E-03  1.64970E-19  5.89117E-03  0.00000E+00  1.0E-07
  4.400E+00  1.47362E-03  1.50749E-19  5.38335E-03  0.00000E+00  1.0E-07
  4.500E+00  1.54133E-03  1.38032E-19  4.92920E-03  0.00000E+00  1.0E-07
  4.600E+00  1.61056E-03  1.26631E-19  4.52207E-03  0.00000E+00  1.0E-07
  4.700E+00  1.68131E-03  1.16382E-19  4.15609E-03  0.00000E+00  1.0E-07
  4.800E+00  1.75357E-03  1.07152E-19  3.82647E-03  0.00000E+00  1.0E-07
  4.900E+00  1.82735E-03  9.88209E-20  3.52896E-03  0.00000E+00  1.0E-07
  5.000E+00  1.90265E-03  9.12857E-20  3.25987E-03  0.00000E+00  1.0E-07
  5.100E+00  1.97947E-03  8.44553E-20  3.01595E-03  0.00000E+00  1.0E-07
  5.200E+00  2.05780E-03  7.82528E-20  2.79446E-03  0.00000E+00  1.0E-07
  5.300E+00  2.13765E-03  7.26106E-20  2.59297E-03  0.00000E+00  1.0E-07
  5.400E+00  2.21902E-03  6.74691E-20  2.40936E-03  0.00000E+00  1.0E-07
  5.500E+00  2.30190E-03  6.27750E-20  2.24174E-03  0.00000E+00  1.0E-07
  5.600E+00  2.38630E-03  5.84826E-20  2.08845E-03  0.00000E+00  1.0E-07
  5.700E+00  2.47222E-03  5.45517E-20  1.94808E-03  0.00000E+00  1.0E-07
  5.800E+00  2.55965E-03  5.09464E-20  1.81933E-03  0.00000E+00  1.0E-07
  5.900E+00  2.64859E-03  4.76345E-20  1.70106E-03  0.00000E+00  1.0E-07
  6.000E+00  2.73905E-03  4.45876E-20  1.59225E-03  0.00000E+00  1.0E-07
  6.100E+00  2.83103E-03  4.17811E-20  1.49203E-03  0.00000E+00  1.0E-07
  6.200E+00  2.92452E-03  3.91925E-20  1.39959E-03  0.00000E+00  1.0E-07
  6.300E+00  3.01952E-03  3.68018E-20  1.31422E-03  0.00000E+00  1.0E-07
  6.400E+00  3.11604E-03  3.45908E-20  1.23526E-03  0.00000E+00  1.0E-07
  6.500E+00  3.21407E-03  3.25437E-20  1.16216E-03  0.00000E+00  1.0E-07
  6.600E+00  3.31362E-03  3.06463E-20  1.09440E-03  0.00000E+00  1.0E-07
  6.700E+00  3.41468E-03  2.88856E-20  1.03152E-03  0.00000E+00  1.0E-07
  6.800E+00  3.51725E-03  2.72497E-20  9.73103E-04  0.00000E+00  1.0E-07
  6.900E+00  3.62133E-03  2.57282E-20  9.18772E-04  0.00000E+00  1.0E-07
  7.000E+00  3.72692E-03  2.43118E-20  8.68191E-04  0.00000E+00  1.0E-07
  7.100E+00  3.83403E-03  2.29919E-20  8.21054E-04  0.00000E+00  1.0E-07
  7.200E+00  3.94265E-03  2.17604E-20  7.77079E-04  0.00000E+00  1.0E-07
  7.300E+00  4.05278E-03  2.06106E-20  7.36017E-04  0.00000E+00  1.0E-07
  7.400E+00  4.16442E-03  1.95359E-20  6.97641E-04  0.00000E+00  1.0E-07
  7.500E+00  4.27757E-03  1.85306E-20  6.61741E-04  0.00000E+00  1.0E-07
  7.600E+00  4.39223E-03  1.75894E-20  6.28127E-04  0.00000E+00  1.0E-07
  7.700E+00  4.50840E-03  1.67072E-20  5.96627E-04  0.00000E+00  1.0E-07
  7.800E+00  4.62608E-03  1.58799E-20  5.67083E-04  0.00000E+00  1.0E-07
  7.900E+00  4.74527E-03  1.51034E-20  5.39352E-04  0.00000E+00  1.0E-07
  8.000E+00  4.86597E-03  1.43739E-20  5.13301E-04  0.00000E+00  1.0E-07
  8.100E+00  4.98817E-03  1.36880E-20  4.88808E-04  0.00000E+00  1.0E-07
  8.200E+00  5.11188E-03  1.30427E-20  4.65765E-04  0.00000E+00  1.0E-07
  8.300E+00  5.23711E-03  1.24352E-20  4.44068E-04  0.00000E+00  1.0E-07
  8.400E+00  5.36383E-03  1.18627E-20  4.23625E-04  0.00000E+00  1.0E-07
  8.500E+00  5.49207E-03  1.13229E-20  4.04348E-04  0.00000E+00  1.0E-07
  8.600E+00  5.62181E-03  1.08136E-20  3.86160E-04  0.00000E+00  1.0E-07
  8.700E+00  5.75306E-03  1.03327E-20  3.68987E-04  0.00000E+00  1.0E-07
  8.800E+00  5.88581E-03  9.87835E-21  3.52762E-04  0.00000E+00  1.0E-07
  8.900E+00  6.02007E-03  9.44878E-21  3.37422E-04  0.00000E+00  1.0E-07
  9.000E+00  6.15583E-03  9.04241E-21  3.22910E-04  0.00000E+00  1.0E-07
  9.100E+00  6.29310E-03  8.65775E-21  3.09174E-04  0.00000E+00  1.0E-07
  9.200E+00  6.43187E-03  8.29341E-21  2.96163E-04  0.00000E+00  1.0E-07
  9.300E+00  6.57214E-03  7.94812E-21  2.83832E-04  0.00000E+00  1.0E-07
  9.400E+00  6.71392E-03  7.62068E-21  2.72139E-04  0.00000E+00  1.0E-07
  9.500E+00  6.85720E-03  7.31000E-21  2.61045E-04  0.00000E+00  1.0E-07
  9.600E+00  7.00198E-03  7.01507E-21  2.50513E-04  0.00000E+00  1.0E-07
  9.700E+00  7.14827E-03  6.73493E-21  2.40509E-04  0.00000E+00  1.0E-07
  9.800E+00  7.29605E-03  6.46869E-21  2.31001E-04  0.00000E+00  1.0E-07
  9.900E+00  7.44534E-03  6.21554E-21  2.21961E-04  0.00000E+00  1.0E-07
  1.000E+01  7.59612E-03  5.97472E-21  2.13361E-04  0.00000E+00  1.0E-07
  1.025E+01  7.97965E-03  5.42198E-21  1.93622E-04  0.00000E+00  1.0E-07
  1.050E+01  8.37255E-03  4.93199E-21  1.76125E-04  0.00000E+00  1.0E-07
  1.075E+01  8.77480E-03  4.49637E-21  1.60568E-04  0.00000E+00  1.0E-07
  1.100E+01  9.18641E-03  4.10803E-21  1.46700E-04  0.00000E+00  1.0E-07
  1.125E+01  9.60736E-03  3.76092E-21  1.34305E-04  0.00000E+00  1.0E-07
  1.150E+01  1.00376E-02  3.44990E-21  1.23198E-04  0.00000E+00  1.0E-07
  1.175E+01  1.04773E-02  3.17053E-21  1.13222E-04  0.00000E+00  1.0E-07
  1.200E+01  1.09262E-02  2.91903E-21  1.04240E-04  0.00000E+00  1.0E-07
  1.225E+01  1.13844E-02  2.69211E-21  9.61369E-05  0.00000E+00  1.0E-07
  1.250E+01  1.18520E-02  2.48693E-21  8.88100E-05  0.00000E+00  1.0E-07
  1.275E+01  1.23288E-02  2.30105E-21  8.21719E-05  0.00000E+00  1.0E-07
  1.300E+01  1.28150E-02  2.13231E-21  7.61460E-05  0.00000E+00  1.0E-07
  1.325E+01  1.33104E-02  1.97884E-21  7.06656E-05  0.00000E+00  1.0E-07
  1.350E+01  1.38150E-02  1.83902E-21  6.56725E-05  0.00000E+00  1.0E-07
  1.375E+01  1.43290E-02  1.71140E-21  6.11152E-05  0.00000E+00  1.0E-07
  1.400E+01  1.48521E-02  1.59473E-21  5.69489E-05  0.00000E+00  1.0E-07
  1.425E+01  1.53845E-02  1.48790E-21  5.31338E-05  0.00000E+00  1.0E-07
  1.450E+01  1.59262E-02  1.38992E-21  4.96349E-05  0.00000E+00  1.0E-07
  1.475E+01  1.64770E-02  1.29992E-21  4.64211E-05  0.00000E+00  1.0E-07
  1.500E+01  1.70371E-02  1.21714E-21  4.34649E-05  0.00000E+00  1.0E-07
  1.525E+01  1.76063E-02  1.14089E-21  4.07419E-05  0.00000E+00  1.0E-07
