 #
 # Subroutine ELSEPA. Elastic scattering of electrons and positrons
 #                    by neutral atoms and positive ions
 #
 # Projectile: electron
 # Kinetic energy = 3.70000E+06 eV = 1.35973E+05 a.u.
 #
 # WARNING: High-energy factorization with free-atom DF screening.
 #          Absorption, polarization and exchange corrections are
 #          switched off.
 #          Phase shifts are calculated for the bare nucleus.
 #          Scattering amplitudes are not evaluated.
 #
 # Element: Ca,  Z =  20,  atomic weight = 4.00780E+01 g/mol
 #
 # Nuclear model: Fermi distribution
 #                Average radius = 3.66173E-13 cm
 #                Skin thickness = 5.46000E-14 cm
 #
 # Number of electrons = 20
 #
 # Total elastic cross section = 1.83890E-18 cm**2 = 6.56685E-02 a0**2
 # 1st transport cross section = 3.47194E-23 cm**2 = 1.23985E-06 a0**2
 # 2nd transport cross section = 9.86762E-23 cm**2 = 3.52379E-06 a0**2
 #
 #
 # Differential cross section:                       MU=(1-COS(THETA))/2
 #
 #  THETA        MU          DCS          DCS        Sherman      error
 #  (deg)                 (cm**2/sr)   (a0**2/sr)    function
 #----------------------------------------------------------------------
  0.000E+00  0.00000E+00  6.63894E-13  2.37081E+04  0.00000E+00  1.0E-05
  1.000E-04  7.61557E-13  6.63887E-13  2.37078E+04  0.00000E+00  1.0E-05
  1.250E-04  1.18994E-12  6.63883E-13  2.37077E+04  0.00000E+00  1.0E-05
  1.500E-04  1.71346E-12  6.63879E-13  2.37075E+04  0.00000E+00  1.0E-05
  1.750E-04  2.33225E-12  6.63874E-13  2.37074E+04  0.00000E+00  1.0E-05
  2.000E-04  3.04617E-12  6.63868E-13  2.37071E+04  0.00000E+00  1.0E-05
  2.250E-04  3.85530E-12  6.63861E-13  2.37069E+04  0.00000E+00  1.0E-05
  2.500E-04  4.75964E-12  6.63853E-13  2.37066E+04  0.00000E+00  1.0E-05
  2.750E-04  5.75917E-12  6.63844E-13  2.37063E+04  0.00000E+00  1.0E-05
  3.000E-04  6.85391E-12  6.63835E-13  2.37060E+04  0.00000E+00  1.0E-05
  3.250E-04  8.04379E-12  6.63825E-13  2.37056E+04  0.00000E+00  1.0E-05
  3.500E-04  9.32893E-12  6.63814E-13  2.37052E+04  0.00000E+00  1.0E-05
  3.750E-04  1.07092E-11  6.63803E-13  2.37048E+04  0.00000E+00  1.0E-05
  4.000E-04  1.21847E-11  6.63790E-13  2.37044E+04  0.00000E+00  1.0E-05
  4.250E-04  1.37554E-11  6.63777E-13  2.37039E+04  0.00000E+00  1.0E-05
  4.500E-04  1.54213E-11  6.63763E-13  2.37034E+04  0.00000E+00  1.0E-05
  4.750E-04  1.71823E-11  6.63748E-13  2.37029E+04  0.00000E+00  1.0E-05
  5.000E-04  1.90386E-11  6.63732E-13  2.37023E+04  0.00000E+00  1.0E-05
  5.250E-04  2.09900E-11  6.63716E-13  2.37017E+04  0.00000E+00  1.0E-05
  5.500E-04  2.30367E-11  6.63698E-13  2.37011E+04  0.00000E+00  1.0E-05
  5.750E-04  2.51785E-11  6.63680E-13  2.37005E+04  0.00000E+00  1.0E-05
  6.000E-04  2.74156E-11  6.63661E-13  2.36998E+04  0.00000E+00  1.0E-05
  6.250E-04  2.97478E-11  6.63642E-13  2.36991E+04  0.00000E+00  1.0E-05
  6.500E-04  3.21752E-11  6.63621E-13  2.36983E+04  0.00000E+00  1.0E-05
  6.750E-04  3.46979E-11  6.63600E-13  2.36976E+04  0.00000E+00  1.0E-05
  7.000E-04  3.73157E-11  6.63578E-13  2.36968E+04  0.00000E+00  1.0E-05
  7.250E-04  4.00286E-11  6.63555E-13  2.36960E+04  0.00000E+00  1.0E-05
  7.500E-04  4.28368E-11  6.63532E-13  2.36951E+04  0.00000E+00  1.0E-05
  7.750E-04  4.57402E-11  6.63507E-13  2.36943E+04  0.00000E+00  1.0E-05
  8.000E-04  4.87388E-11  6.63482E-13  2.36934E+04  0.00000E+00  1.0E-05
  8.250E-04  5.18325E-11  6.63456E-13  2.36924E+04  0.00000E+00  1.0E-05
  8.500E-04  5.50215E-11  6.63429E-13  2.36915E+04  0.00000E+00  1.0E-05
  8.750E-04  5.83057E-11  6.63401E-13  2.36905E+04  0.00000E+00  1.0E-05
  9.000E-04  6.16850E-11  6.63373E-13  2.36895E+04  0.00000E+00  1.0E-05
  9.250E-04  6.51595E-11  6.63344E-13  2.36884E+04  0.00000E+00  1.0E-05
  9.500E-04  6.87293E-11  6.63314E-13  2.36874E+04  0.00000E+00  1.0E-05
  9.750E-04  7.23943E-11  6.63283E-13  2.36863E+04  0.00000E+00  1.0E-05
  1.000E-03  7.61544E-11  6.63251E-13  2.36851E+04  0.00000E+00  1.0E-05
  1.250E-03  1.18991E-10  6.62892E-13  2.36723E+04  0.00000E+00  1.0E-05
  1.500E-03  1.71347E-10  6.62453E-13  2.36566E+04  0.00000E+00  1.0E-05
  1.750E-03  2.33223E-10  6.61934E-13  2.36381E+04  0.00000E+00  1.0E-05
  2.000E-03  3.04617E-10  6.61338E-13  2.36168E+04  0.00000E+00  1.0E-05
  2.250E-03  3.85531E-10  6.60662E-13  2.35927E+04  0.00000E+00  1.0E-05
  2.500E-03  4.75965E-10  6.59909E-13  2.35658E+04  0.00000E+00  1.0E-05
  2.750E-03  5.75917E-10  6.59077E-13  2.35361E+04  0.00000E+00  1.0E-05
  3.000E-03  6.85389E-10  6.58169E-13  2.35036E+04  0.00000E+00  1.0E-05
  3.250E-03  8.04380E-10  6.57183E-13  2.34684E+04  0.00000E+00  1.0E-05
  3.500E-03  9.32891E-10  6.56122E-13  2.34305E+04  0.00000E+00  1.0E-05
  3.750E-03  1.07092E-09  6.54984E-13  2.33899E+04  0.00000E+00  1.0E-05
  4.000E-03  1.21847E-09  6.53771E-13  2.33466E+04  0.00000E+00  1.0E-05
  4.250E-03  1.37554E-09  6.52483E-13  2.33006E+04  0.00000E+00  1.0E-05
  4.500E-03  1.54213E-09  6.51123E-13  2.32520E+04  0.00000E+00  1.0E-05
  4.750E-03  1.71823E-09  6.49688E-13  2.32008E+04  0.00000E+00  1.0E-05
  5.000E-03  1.90386E-09  6.48181E-13  2.31470E+04  0.00000E+00  1.0E-05
  5.250E-03  2.09900E-09  6.46602E-13  2.30906E+04  0.00000E+00  1.0E-05
  5.500E-03  2.30367E-09  6.44953E-13  2.30317E+04  0.00000E+00  1.0E-05
  5.750E-03  2.51785E-09  6.43233E-13  2.29703E+04  0.00000E+00  1.0E-05
  6.000E-03  2.74156E-09  6.41443E-13  2.29064E+04  0.00000E+00  1.0E-05
  6.250E-03  2.97478E-09  6.39587E-13  2.28401E+04  0.00000E+00  1.0E-05
  6.500E-03  3.21752E-09  6.37662E-13  2.27713E+04  0.00000E+00  1.0E-05
  6.750E-03  3.46978E-09  6.35670E-13  2.27002E+04  0.00000E+00  1.0E-05
  7.000E-03  3.73156E-09  6.33614E-13  2.26268E+04  0.00000E+00  1.0E-05
  7.250E-03  4.00286E-09  6.31493E-13  2.25510E+04  0.00000E+00  1.0E-05
  7.500E-03  4.28368E-09  6.29307E-13  2.24730E+04  0.00000E+00  1.0E-05
  7.750E-03  4.57402E-09  6.27060E-13  2.23927E+04  0.00000E+00  1.0E-05
  8.000E-03  4.87388E-09  6.24752E-13  2.23103E+04  0.00000E+00  1.0E-05
  8.250E-03  5.18326E-09  6.22383E-13  2.22257E+04  0.00000E+00  1.0E-05
  8.500E-03  5.50215E-09  6.19954E-13  2.21389E+04  0.00000E+00  1.0E-05
  8.750E-03  5.83057E-09  6.17470E-13  2.20503E+04  0.00000E+00  1.0E-05
  9.000E-03  6.16850E-09  6.14928E-13  2.19595E+04  0.00000E+00  1.0E-05
  9.250E-03  6.51596E-09  6.12328E-13  2.18666E+04  0.00000E+00  1.0E-05
  9.500E-03  6.87293E-09  6.09676E-13  2.17719E+04  0.00000E+00  1.0E-05
  9.750E-03  7.23942E-09  6.06972E-13  2.16754E+04  0.00000E+00  1.0E-05
  1.000E-02  7.61544E-09  6.04213E-13  2.15768E+04  0.00000E+00  1.0E-05
  1.250E-02  1.18991E-08  5.74061E-13  2.05001E+04  0.00000E+00  1.0E-05
  1.500E-02  1.71347E-08  5.40143E-13  1.92889E+04  0.00000E+00  1.0E-05
  1.750E-02  2.33223E-08  5.03776E-13  1.79902E+04  0.00000E+00  1.0E-05
  2.000E-02  3.04617E-08  4.66206E-13  1.66485E+04  0.00000E+00  1.0E-05
  2.250E-02  3.85531E-08  4.28540E-13  1.53034E+04  0.00000E+00  1.0E-05
  2.500E-02  4.75965E-08  3.91699E-13  1.39878E+04  0.00000E+00  1.0E-05
  2.750E-02  5.75917E-08  3.56398E-13  1.27272E+04  0.00000E+00  1.0E-05
  3.000E-02  6.85389E-08  3.23151E-13  1.15399E+04  0.00000E+00  1.0E-05
  3.250E-02  8.04380E-08  2.92283E-13  1.04376E+04  0.00000E+00  1.0E-05
  3.500E-02  9.32891E-08  2.64354E-13  9.44026E+03  0.00000E+00  1.0E-05
  3.750E-02  1.07092E-07  2.39107E-13  8.53866E+03  0.00000E+00  1.0E-05
  4.000E-02  1.21847E-07  2.15738E-13  7.70414E+03  0.00000E+00  1.0E-05
  4.250E-02  1.37554E-07  1.94258E-13  6.93707E+03  0.00000E+00  1.0E-05
  4.500E-02  1.54213E-07  1.76242E-13  6.29371E+03  0.00000E+00  1.0E-05
  4.750E-02  1.71823E-07  1.59795E-13  5.70639E+03  0.00000E+00  1.0E-05
  5.000E-02  1.90386E-07  1.44823E-13  5.17174E+03  0.00000E+00  1.0E-05
  5.250E-02  2.09900E-07  1.31854E-13  4.70859E+03  0.00000E+00  1.0E-05
  5.500E-02  2.30367E-07  1.20487E-13  4.30266E+03  0.00000E+00  1.0E-05
  5.750E-02  2.51785E-07  1.10170E-13  3.93424E+03  0.00000E+00  1.0E-05
  6.000E-02  2.74156E-07  1.00927E-13  3.60416E+03  0.00000E+00  1.0E-05
  6.250E-02  2.97478E-07  9.29913E-14  3.32078E+03  0.00000E+00  1.0E-05
  6.500E-02  3.21752E-07  8.57858E-14  3.06347E+03  0.00000E+00  1.0E-05
  6.750E-02  3.46978E-07  7.92437E-14  2.82984E+03  0.00000E+00  1.0E-05
  7.000E-02  3.73156E-07  7.34962E-14  2.62460E+03  0.00000E+00  1.0E-05
  7.250E-02  4.00286E-07  6.83179E-14  2.43968E+03  0.00000E+00  1.0E-05
  7.500E-02  4.28368E-07  6.36033E-14  2.27131E+03  0.00000E+00  1.0E-05
  7.750E-02  4.57402E-07  5.93343E-14  2.11887E+03  0.00000E+00  1.0E-05
  8.000E-02  4.87388E-07  5.54811E-14  1.98126E+03  0.00000E+00  1.0E-05
  8.250E-02  5.18325E-07  5.19619E-14  1.85559E+03  0.00000E+00  1.0E-05
  8.500E-02  5.50215E-07  4.87445E-14  1.74070E+03  0.00000E+00  1.0E-05
  8.750E-02  5.83057E-07  4.57778E-14  1.63475E+03  0.00000E+00  1.0E-05
  9.000E-02  6.16850E-07  4.30596E-14  1.53769E+03  0.00000E+00  1.0E-05
  9.250E-02  6.51596E-07  4.05665E-14  1.44866E+03  0.00000E+00  1.0E-05
  9.500E-02  6.87293E-07  3.82411E-14  1.36561E+03  0.00000E+00  1.0E-05
  9.750E-02  7.23942E-07  3.60792E-14  1.28841E+03  0.00000E+00  1.0E-05
  1.000E-01  7.61543E-07  3.40906E-14  1.21740E+03  0.00000E+00  1.0E-05
  1.250E-01  1.18991E-06  1.99855E-14  7.13694E+02  0.00000E+00  1.0E-05
  1.500E-01  1.71347E-06  1.22080E-14  4.35956E+02  0.00000E+00  1.0E-05
  1.750E-01  2.33223E-06  7.69384E-15  2.74752E+02  0.00000E+00  1.0E-05
  2.000E-01  3.04617E-06  5.00995E-15  1.78908E+02  0.00000E+00  1.0E-05
  2.250E-01  3.85531E-06  3.38008E-15  1.20705E+02  0.00000E+00  1.0E-05
  2.500E-01  4.75964E-06  2.36294E-15  8.43821E+01  0.00000E+00  1.0E-05
  2.750E-01  5.75916E-06  1.70837E-15  6.10069E+01  0.00000E+00  1.0E-05
  3.000E-01  6.85388E-06  1.27315E-15  4.54648E+01  0.00000E+00  1.0E-05
  3.250E-01  8.04378E-06  9.73932E-16  3.47798E+01  0.00000E+00  1.0E-05
  3.500E-01  9.32888E-06  7.61157E-16  2.71814E+01  0.00000E+00  1.0E-05
  3.750E-01  1.07092E-05  6.06512E-16  2.16589E+01  0.00000E+00  1.0E-05
  4.000E-01  1.21846E-05  4.90072E-16  1.75008E+01  0.00000E+00  1.0E-05
  4.250E-01  1.37553E-05  4.01058E-16  1.43220E+01  0.00000E+00  1.0E-05
  4.500E-01  1.54212E-05  3.31842E-16  1.18503E+01  0.00000E+00  1.0E-05
  4.750E-01  1.71822E-05  2.77069E-16  9.89431E+00  0.00000E+00  1.0E-05
  5.000E-01  1.90385E-05  2.32776E-16  8.31257E+00  0.00000E+00  1.0E-05
  5.250E-01  2.09899E-05  1.97005E-16  7.03519E+00  0.00000E+00  1.0E-05
  5.500E-01  2.30365E-05  1.67792E-16  5.99197E+00  0.00000E+00  1.0E-05
  5.750E-01  2.51783E-05  1.43631E-16  5.12917E+00  0.00000E+00  1.0E-05
  6.000E-01  2.74153E-05  1.23484E-16  4.40969E+00  0.00000E+00  1.0E-05
  6.250E-01  2.97475E-05  1.06690E-16  3.80995E+00  0.00000E+00  1.0E-05
  6.500E-01  3.21749E-05  9.25981E-17  3.30674E+00  0.00000E+00  1.0E-05
  6.750E-01  3.46974E-05  8.06614E-17  2.88047E+00  0.00000E+00  1.0E-05
  7.000E-01  3.73152E-05  7.05317E-17  2.51873E+00  0.00000E+00  1.0E-05
  7.250E-01  4.00281E-05  6.19176E-17  2.21112E+00  0.00000E+00  1.0E-05
  7.500E-01  4.28362E-05  5.45558E-17  1.94822E+00  0.00000E+00  1.0E-05
  7.750E-01  4.57395E-05  4.82167E-17  1.72185E+00  0.00000E+00  1.0E-05
  8.000E-01  4.87380E-05  4.27575E-17  1.52690E+00  0.00000E+00  1.0E-05
  8.250E-01  5.18317E-05  3.80400E-17  1.35843E+00  0.00000E+00  1.0E-05
  8.500E-01  5.50205E-05  3.39468E-17  1.21226E+00  0.00000E+00  1.0E-05
  8.750E-01  5.83045E-05  3.03761E-17  1.08475E+00  0.00000E+00  1.0E-05
  9.000E-01  6.16838E-05  2.72600E-17  9.73472E-01  0.00000E+00  1.0E-05
  9.250E-01  6.51582E-05  2.45312E-17  8.76026E-01  0.00000E+00  1.0E-05
  9.500E-01  6.87277E-05  2.21329E-17  7.90379E-01  0.00000E+00  1.0E-05
  9.750E-01  7.23925E-05  2.00179E-17  7.14852E-01  0.00000E+00  1.0E-05
  1.000E+00  7.61524E-05  1.81495E-17  6.48131E-01  0.00000E+00  2.2E-05
  1.100E+00  9.21439E-05  1.25406E-17  4.47832E-01  0.00000E+00  1.6E-05
  1.200E+00  1.09658E-04  8.94364E-18  3.19383E-01  0.00000E+00  8.9E-06
  1.300E+00  1.28695E-04  6.55360E-18  2.34033E-01  0.00000E+00  1.8E-06
  1.400E+00  1.49255E-04  4.91494E-18  1.75516E-01  0.00000E+00  3.6E-06
  1.500E+00  1.71338E-04  3.76061E-18  1.34294E-01  0.00000E+00  6.4E-06
  1.600E+00  1.94942E-04  2.92783E-18  1.04555E-01  0.00000E+00  6.8E-06
  1.700E+00  2.20070E-04  2.31439E-18  8.26483E-02  0.00000E+00  5.4E-06
  1.800E+00  2.46720E-04  1.85416E-18  6.62132E-02  0.00000E+00  3.0E-06
  1.900E+00  2.74892E-04  1.50320E-18  5.36803E-02  0.00000E+00  4.7E-07
  2.000E+00  3.04586E-04  1.23170E-18  4.39849E-02  0.00000E+00  1.7E-06
  2.100E+00  3.35803E-04  1.01892E-18  3.63864E-02  0.00000E+00  2.8E-06
  2.200E+00  3.68542E-04  8.50222E-19  3.03620E-02  0.00000E+00  3.1E-06
  2.300E+00  4.02802E-04  7.15051E-19  2.55349E-02  0.00000E+00  2.5E-06
  2.400E+00  4.38585E-04  6.05704E-19  2.16301E-02  0.00000E+00  1.4E-06
  2.500E+00  4.75889E-04  5.16476E-19  1.84437E-02  0.00000E+00  1.3E-07
  2.600E+00  5.14715E-04  4.43076E-19  1.58225E-02  0.00000E+00  9.5E-07
  2.700E+00  5.55063E-04  3.82251E-19  1.36504E-02  0.00000E+00  1.6E-06
  2.800E+00  5.96931E-04  3.31502E-19  1.18381E-02  0.00000E+00  1.7E-06
  2.900E+00  6.40321E-04  2.88890E-19  1.03165E-02  0.00000E+00  1.3E-06
  3.000E+00  6.85233E-04  2.52901E-19  9.03125E-03  0.00000E+00  7.2E-07
  3.100E+00  7.31665E-04  2.22337E-19  7.93979E-03  0.00000E+00  1.0E-07
  3.200E+00  7.79618E-04  1.96246E-19  7.00809E-03  0.00000E+00  6.2E-07
  3.300E+00  8.29092E-04  1.73867E-19  6.20892E-03  0.00000E+00  9.7E-07
  3.400E+00  8.80086E-04  1.54585E-19  5.52032E-03  0.00000E+00  1.0E-06
  3.500E+00  9.32601E-04  1.37898E-19  4.92441E-03  0.00000E+00  8.1E-07
  3.600E+00  9.86636E-04  1.23400E-19  4.40669E-03  0.00000E+00  4.2E-07
  3.700E+00  1.04219E-03  1.10757E-19  3.95519E-03  0.00000E+00  1.0E-07
  3.800E+00  1.09927E-03  9.96899E-20  3.55999E-03  0.00000E+00  4.3E-07
  3.900E+00  1.15786E-03  8.99703E-20  3.21290E-03  0.00000E+00  6.5E-07
  4.000E+00  1.21797E-03  8.14052E-20  2.90703E-03  0.00000E+00  6.8E-07
  4.100E+00  1.27961E-03  7.38344E-20  2.63667E-03  0.00000E+00  5.3E-07
  4.200E+00  1.34276E-03  6.71231E-20  2.39701E-03  0.00000E+00  2.6E-07
  4.300E+00  1.40743E-03  6.11568E-20  2.18395E-03  0.00000E+00  1.0E-07
  4.400E+00  1.47362E-03  5.58386E-20  1.99403E-03  0.00000E+00  3.2E-07
  4.500E+00  1.54133E-03  5.10858E-20  1.82431E-03  0.00000E+00  4.6E-07
  4.600E+00  1.61056E-03  4.68277E-20  1.67225E-03  0.00000E+00  4.7E-07
  4.700E+00  1.68131E-03  4.30041E-20  1.53570E-03  0.00000E+00  3.6E-07
  4.800E+00  1.75357E-03  3.95628E-20  1.41281E-03  0.00000E+00  1.7E-07
  4.900E+00  1.82735E-03  3.64590E-20  1.30198E-03  0.00000E+00  1.0E-07
  5.000E+00  1.90265E-03  3.36537E-20  1.20180E-03  0.00000E+00  2.5E-07
  5.100E+00  1.97947E-03  3.11131E-20  1.11107E-03  0.00000E+00  3.4E-07
  5.200E+00  2.05780E-03  2.88077E-20  1.02874E-03  0.00000E+00  3.4E-07
  5.300E+00  2.13765E-03  2.67121E-20  9.53906E-04  0.00000E+00  2.6E-07
  5.400E+00  2.21902E-03  2.48037E-20  8.85755E-04  0.00000E+00  1.1E-07
  5.500E+00  2.30190E-03  2.30628E-20  8.23586E-04  0.00000E+00  1.0E-07
  5.600E+00  2.38630E-03  2.14720E-20  7.66780E-04  0.00000E+00  2.0E-07
  5.700E+00  2.47222E-03  2.00161E-20  7.14789E-04  0.00000E+00  2.6E-07
  5.800E+00  2.55965E-03  1.86817E-20  6.67135E-04  0.00000E+00  2.6E-07
  5.900E+00  2.64859E-03  1.74567E-20  6.23389E-04  0.00000E+00  1.9E-07
  6.000E+00  2.73905E-03  1.63305E-20  5.83174E-04  0.00000E+00  1.0E-07
  6.100E+00  2.83103E-03  1.52939E-20  5.46154E-04  0.00000E+00  1.0E-07
  6.200E+00  2.92452E-03  1.43382E-20  5.12027E-04  0.00000E+00  1.6E-07
  6.300E+00  3.01952E-03  1.34561E-20  4.80527E-04  0.00000E+00  2.1E-07
  6.400E+00  3.11604E-03  1.26409E-20  4.51415E-04  0.00000E+00  2.0E-07
  6.500E+00  3.21407E-03  1.18866E-20  4.24478E-04  0.00000E+00  1.4E-07
  6.600E+00  3.31362E-03  1.11878E-20  3.99522E-04  0.00000E+00  1.0E-07
  6.700E+00  3.41468E-03  1.05396E-20  3.76376E-04  0.00000E+00  1.0E-07
  6.800E+00  3.51725E-03  9.93778E-21  3.54885E-04  0.00000E+00  1.3E-07
  6.900E+00  3.62133E-03  9.37836E-21  3.34907E-04  0.00000E+00  1.6E-07
  7.000E+00  3.72692E-03  8.85781E-21  3.16318E-04  0.00000E+00  1.5E-07
  7.100E+00  3.83403E-03  8.37293E-21  2.99003E-04  0.00000E+00  1.0E-07
  7.200E+00  3.94265E-03  7.92083E-21  2.82858E-04  0.00000E+00  1.0E-07
  7.300E+00  4.05278E-03  7.49888E-21  2.67790E-04  0.00000E+00  1.0E-07
  7.400E+00  4.16442E-03  7.10471E-21  2.53714E-04  0.00000E+00  1.1E-07
  7.500E+00  4.27757E-03  6.73614E-21  2.40552E-04  0.00000E+00  1.3E-07
  7.600E+00  4.39223E-03  6.39120E-21  2.28234E-04  0.00000E+00  1.2E-07
  7.700E+00  4.50840E-03  6.06810E-21  2.16696E-04  0.00000E+00  1.0E-07
  7.800E+00  4.62608E-03  5.76520E-21  2.05879E-04  0.00000E+00  1.0E-07
  7.900E+00  4.74527E-03  5.48099E-21  1.95730E-04  0.00000E+00  1.0E-07
  8.000E+00  4.86597E-03  5.21412E-21  1.86200E-04  0.00000E+00  1.0E-07
  8.100E+00  4.98817E-03  4.96332E-21  1.77244E-04  0.00000E+00  1.1E-07
  8.200E+00  5.11188E-03  4.72746E-21  1.68821E-04  0.00000E+00  1.0E-07
  8.300E+00  5.23711E-03  4.50546E-21  1.60893E-04  0.00000E+00  1.0E-07
  8.400E+00  5.36383E-03  4.29637E-21  1.53426E-04  0.00000E+00  1.0E-07
  8.500E+00  5.49207E-03  4.09930E-21  1.46388E-04  0.00000E+00  1.0E-07
  8.600E+00  5.62181E-03  3.91342E-21  1.39751E-04  0.00000E+00  1.0E-07
  8.700E+00  5.75306E-03  3.73797E-21  1.33485E-04  0.00000E+00  1.0E-07
  8.800E+00  5.88581E-03  3.57228E-21  1.27568E-04  0.00000E+00  1.0E-07
  8.900E+00  6.02007E-03  3.41568E-21  1.21976E-04  0.00000E+00  1.0E-07
  9.000E+00  6.15583E-03  3.26759E-21  1.16688E-04  0.00000E+00  1.0E-07
  9.100E+00  6.29310E-03  3.12745E-21  1.11683E-04  0.00000E+00  1.0E-07
  9.200E+00  6.43187E-03  2.99477E-21  1.06945E-04  0.00000E+00  1.0E-07
  9.300E+00  6.57214E-03  2.86906E-21  1.02456E-04  0.00000E+00  1.0E-07
  9.400E+00  6.71392E-03  2.74989E-21  9.82005E-05  0.00000E+00  1.0E-07
  9.500E+00  6.85720E-03  2.63687E-21  9.41642E-05  0.00000E+00  1.0E-07
  9.600E+00  7.00198E-03  2.52960E-21  9.03337E-05  0.00000E+00  1.0E-07
  9.700E+00  7.14827E-03  2.42775E-21  8.66964E-05  0.00000E+00  1.0E-07
  9.800E+00  7.29605E-03  2.33098E-21  8.32408E-05  0.00000E+00  1.0E-07
  9.900E+00  7.44534E-03  2.23900E-21  7.99561E-05  0.00000E+00  1.0E-07
  1.000E+01  7.59612E-03  2.15152E-21  7.68322E-05  0.00000E+00  1.0E-07
  1.025E+01  7.97965E-03  1.95085E-21  6.96662E-05  0.00000E+00  1.0E-07
  1.050E+01  8.37255E-03  1.77309E-21  6.33183E-05  0.00000E+00  1.0E-07
  1.075E+01  8.77480E-03  1.61518E-21  5.76790E-05  0.00000E+00  1.0E-07
  1.100E+01  9.18641E-03  1.47450E-21  5.26552E-05  0.00000E+00  1.0E-07
  1.125E+01  9.60736E-03  1.34884E-21  4.81681E-05  0.00000E+00  1.0E-07
  1.150E+01  1.00376E-02  1.23633E-21  4.41500E-05  0.00000E+00  1.0E-07
  1.175E+01  1.04773E-02  1.13533E-21  4.05434E-05  0.00000E+00  1.0E-07
  1.200E+01  1.09262E-02  1.04447E-21  3.72986E-05  0.00000E+00  1.0E-07
  1.225E+01  1.13844E-02  9.62539E-22  3.43729E-05  0.00000E+00  1.0E-07
  1.250E+01  1.18520E-02  8.88508E-22  3.17292E-05  0.00000E+00  1.0E-07
  1.275E+01  1.23288E-02  8.21471E-22  2.93353E-05  0.00000E+00  1.0E-07
  1.300E+01  1.28150E-02  7.60646E-22  2.71632E-05  0.00000E+00  1.0E-07
  1.325E+01  1.33104E-02  7.05364E-22  2.51890E-05  0.00000E+00  1.0E-07
  1.350E+01  1.38150E-02  6.55028E-22  2.33915E-05  0.00000E+00  1.0E-07
  1.375E+01  1.43290E-02  6.09116E-22  2.17519E-05  0.00000E+00  1.0E-07
  1.400E+01  1.48521E-02  5.67168E-22  2.02539E-05  0.00000E+00  1.0E-07
  1.425E+01  1.53845E-02  5.28780E-22  1.88831E-05  0.00000E+00  1.0E-07
  1.450E+01  1.59262E-02  4.93595E-22  1.76266E-05  0.00000E+00  1.0E-07
  1.475E+01  1.64770E-02  4.61297E-22  1.64732E-05  0.00000E+00  1.0E-07
  1.500E+01  1.70371E-02  4.31605E-22  1.54129E-05  0.00000E+00  1.0E-07
  1.525E+01  1.76063E-02  4.04271E-22  1.44368E-05  0.00000E+00  1.0E-07
