 #
 # Subroutine ELSEPA. Elastic scattering of electrons and positrons
 #                    by neutral atoms and positive ions
 #
 # Projectile: electron
 # Kinetic energy = 3.70000E+06 eV = 1.35973E+05 a.u.
 #
 # WARNING: High-energy factorization with free-atom DF screening.
 #          Absorption, polarization and exchange corrections are
 #          switched off.
 #          Phase shifts are calculated for the bare nucleus.
 #          Scattering amplitudes are not evaluated.
 #
 # Element: Ce,  Z =  58,  atomic weight = 1.40116E+02 g/mol
 #
 # Nuclear model: Fermi distribution
 #                Average radius = 5.55750E-13 cm
 #                Skin thickness = 5.46000E-14 cm
 #
 # Number of electrons = 58
 #
 # Total elastic cross section = 7.40017E-18 cm**2 = 2.64265E-01 a0**2
 # 1st transport cross section = 3.01287E-22 cm**2 = 1.07591E-05 a0**2
 # 2nd transport cross section = 8.29225E-22 cm**2 = 2.96121E-05 a0**2
 #
 #
 # Differential cross section:                       MU=(1-COS(THETA))/2
 #
 #  THETA        MU          DCS          DCS        Sherman      error
 #  (deg)                 (cm**2/sr)   (a0**2/sr)    function
 #----------------------------------------------------------------------
  0.000E+00  0.00000E+00  1.98642E-12  7.09364E+04  0.00000E+00  1.0E-05
  1.000E-04  7.61557E-13  1.98640E-12  7.09357E+04  0.00000E+00  1.0E-05
  1.250E-04  1.18994E-12  1.98639E-12  7.09353E+04  0.00000E+00  1.0E-05
  1.500E-04  1.71346E-12  1.98638E-12  7.09349E+04  0.00000E+00  1.0E-05
  1.750E-04  2.33225E-12  1.98636E-12  7.09343E+04  0.00000E+00  1.0E-05
  2.000E-04  3.04617E-12  1.98634E-12  7.09336E+04  0.00000E+00  1.0E-05
  2.250E-04  3.85530E-12  1.98632E-12  7.09329E+04  0.00000E+00  1.0E-05
  2.500E-04  4.75964E-12  1.98630E-12  7.09320E+04  0.00000E+00  1.0E-05
  2.750E-04  5.75917E-12  1.98627E-12  7.09311E+04  0.00000E+00  1.0E-05
  3.000E-04  6.85391E-12  1.98624E-12  7.09301E+04  0.00000E+00  1.0E-05
  3.250E-04  8.04379E-12  1.98621E-12  7.09289E+04  0.00000E+00  1.0E-05
  3.500E-04  9.32893E-12  1.98618E-12  7.09277E+04  0.00000E+00  1.0E-05
  3.750E-04  1.07092E-11  1.98614E-12  7.09265E+04  0.00000E+00  1.0E-05
  4.000E-04  1.21847E-11  1.98610E-12  7.09251E+04  0.00000E+00  1.0E-05
  4.250E-04  1.37554E-11  1.98606E-12  7.09236E+04  0.00000E+00  1.0E-05
  4.500E-04  1.54213E-11  1.98602E-12  7.09221E+04  0.00000E+00  1.0E-05
  4.750E-04  1.71823E-11  1.98597E-12  7.09204E+04  0.00000E+00  1.0E-05
  5.000E-04  1.90386E-11  1.98593E-12  7.09187E+04  0.00000E+00  1.0E-05
  5.250E-04  2.09900E-11  1.98587E-12  7.09169E+04  0.00000E+00  1.0E-05
  5.500E-04  2.30367E-11  1.98582E-12  7.09149E+04  0.00000E+00  1.0E-05
  5.750E-04  2.51785E-11  1.98576E-12  7.09129E+04  0.00000E+00  1.0E-05
  6.000E-04  2.74156E-11  1.98571E-12  7.09109E+04  0.00000E+00  1.0E-05
  6.250E-04  2.97478E-11  1.98565E-12  7.09087E+04  0.00000E+00  1.0E-05
  6.500E-04  3.21752E-11  1.98558E-12  7.09064E+04  0.00000E+00  1.0E-05
  6.750E-04  3.46979E-11  1.98552E-12  7.09041E+04  0.00000E+00  1.0E-05
  7.000E-04  3.73157E-11  1.98545E-12  7.09016E+04  0.00000E+00  1.0E-05
  7.250E-04  4.00286E-11  1.98538E-12  7.08991E+04  0.00000E+00  1.0E-05
  7.500E-04  4.28368E-11  1.98530E-12  7.08965E+04  0.00000E+00  1.0E-05
  7.750E-04  4.57402E-11  1.98523E-12  7.08937E+04  0.00000E+00  1.0E-05
  8.000E-04  4.87388E-11  1.98515E-12  7.08909E+04  0.00000E+00  1.0E-05
  8.250E-04  5.18325E-11  1.98507E-12  7.08881E+04  0.00000E+00  1.0E-05
  8.500E-04  5.50215E-11  1.98498E-12  7.08851E+04  0.00000E+00  1.0E-05
  8.750E-04  5.83057E-11  1.98490E-12  7.08820E+04  0.00000E+00  1.0E-05
  9.000E-04  6.16850E-11  1.98481E-12  7.08789E+04  0.00000E+00  1.0E-05
  9.250E-04  6.51595E-11  1.98472E-12  7.08756E+04  0.00000E+00  1.0E-05
  9.500E-04  6.87293E-11  1.98463E-12  7.08723E+04  0.00000E+00  1.0E-05
  9.750E-04  7.23943E-11  1.98453E-12  7.08689E+04  0.00000E+00  1.0E-05
  1.000E-03  7.61544E-11  1.98443E-12  7.08653E+04  0.00000E+00  1.0E-05
  1.250E-03  1.18991E-10  1.98331E-12  7.08254E+04  0.00000E+00  1.0E-05
  1.500E-03  1.71347E-10  1.98195E-12  7.07766E+04  0.00000E+00  1.0E-05
  1.750E-03  2.33223E-10  1.98033E-12  7.07189E+04  0.00000E+00  1.0E-05
  2.000E-03  3.04617E-10  1.97847E-12  7.06525E+04  0.00000E+00  1.0E-05
  2.250E-03  3.85531E-10  1.97637E-12  7.05774E+04  0.00000E+00  1.0E-05
  2.500E-03  4.75965E-10  1.97402E-12  7.04936E+04  0.00000E+00  1.0E-05
  2.750E-03  5.75917E-10  1.97143E-12  7.04011E+04  0.00000E+00  1.0E-05
  3.000E-03  6.85389E-10  1.96860E-12  7.03000E+04  0.00000E+00  1.0E-05
  3.250E-03  8.04380E-10  1.96553E-12  7.01904E+04  0.00000E+00  1.0E-05
  3.500E-03  9.32891E-10  1.96223E-12  7.00724E+04  0.00000E+00  1.0E-05
  3.750E-03  1.07092E-09  1.95869E-12  6.99460E+04  0.00000E+00  1.0E-05
  4.000E-03  1.21847E-09  1.95491E-12  6.98112E+04  0.00000E+00  1.0E-05
  4.250E-03  1.37554E-09  1.95091E-12  6.96682E+04  0.00000E+00  1.0E-05
  4.500E-03  1.54213E-09  1.94668E-12  6.95171E+04  0.00000E+00  1.0E-05
  4.750E-03  1.71823E-09  1.94222E-12  6.93579E+04  0.00000E+00  1.0E-05
  5.000E-03  1.90386E-09  1.93754E-12  6.91908E+04  0.00000E+00  1.0E-05
  5.250E-03  2.09900E-09  1.93264E-12  6.90157E+04  0.00000E+00  1.0E-05
  5.500E-03  2.30367E-09  1.92752E-12  6.88329E+04  0.00000E+00  1.0E-05
  5.750E-03  2.51785E-09  1.92218E-12  6.86424E+04  0.00000E+00  1.0E-05
  6.000E-03  2.74156E-09  1.91664E-12  6.84444E+04  0.00000E+00  1.0E-05
  6.250E-03  2.97478E-09  1.91088E-12  6.82389E+04  0.00000E+00  1.0E-05
  6.500E-03  3.21752E-09  1.90492E-12  6.80261E+04  0.00000E+00  1.0E-05
  6.750E-03  3.46978E-09  1.89876E-12  6.78061E+04  0.00000E+00  1.0E-05
  7.000E-03  3.73156E-09  1.89240E-12  6.75790E+04  0.00000E+00  1.0E-05
  7.250E-03  4.00286E-09  1.88585E-12  6.73449E+04  0.00000E+00  1.0E-05
  7.500E-03  4.28368E-09  1.87910E-12  6.71040E+04  0.00000E+00  1.0E-05
  7.750E-03  4.57402E-09  1.87217E-12  6.68564E+04  0.00000E+00  1.0E-05
  8.000E-03  4.87388E-09  1.86505E-12  6.66023E+04  0.00000E+00  1.0E-05
  8.250E-03  5.18326E-09  1.85776E-12  6.63416E+04  0.00000E+00  1.0E-05
  8.500E-03  5.50215E-09  1.85028E-12  6.60748E+04  0.00000E+00  1.0E-05
  8.750E-03  5.83057E-09  1.84264E-12  6.58018E+04  0.00000E+00  1.0E-05
  9.000E-03  6.16850E-09  1.83482E-12  6.55228E+04  0.00000E+00  1.0E-05
  9.250E-03  6.51596E-09  1.82685E-12  6.52379E+04  0.00000E+00  1.0E-05
  9.500E-03  6.87293E-09  1.81871E-12  6.49473E+04  0.00000E+00  1.0E-05
  9.750E-03  7.23942E-09  1.81042E-12  6.46512E+04  0.00000E+00  1.0E-05
  1.000E-02  7.61544E-09  1.80197E-12  6.43497E+04  0.00000E+00  1.0E-05
  1.250E-02  1.18991E-08  1.71016E-12  6.10710E+04  0.00000E+00  1.0E-05
  1.500E-02  1.71347E-08  1.60856E-12  5.74428E+04  0.00000E+00  1.0E-05
  1.750E-02  2.33223E-08  1.50045E-12  5.35819E+04  0.00000E+00  1.0E-05
  2.000E-02  3.04617E-08  1.38982E-12  4.96315E+04  0.00000E+00  1.0E-05
  2.250E-02  3.85531E-08  1.28083E-12  4.57394E+04  0.00000E+00  1.0E-05
  2.500E-02  4.75965E-08  1.17586E-12  4.19906E+04  0.00000E+00  1.0E-05
  2.750E-02  5.75917E-08  1.07615E-12  3.84299E+04  0.00000E+00  1.0E-05
  3.000E-02  6.85389E-08  9.82927E-13  3.51010E+04  0.00000E+00  1.0E-05
  3.250E-02  8.04380E-08  8.97423E-13  3.20475E+04  0.00000E+00  1.0E-05
  3.500E-02  9.32891E-08  8.19950E-13  2.92809E+04  0.00000E+00  1.0E-05
  3.750E-02  1.07092E-07  7.49635E-13  2.67700E+04  0.00000E+00  1.0E-05
  4.000E-02  1.21847E-07  6.86204E-13  2.45048E+04  0.00000E+00  1.0E-05
  4.250E-02  1.37554E-07  6.29394E-13  2.24761E+04  0.00000E+00  1.0E-05
  4.500E-02  1.54213E-07  5.78931E-13  2.06740E+04  0.00000E+00  1.0E-05
  4.750E-02  1.71823E-07  5.33643E-13  1.90567E+04  0.00000E+00  1.0E-05
  5.000E-02  1.90386E-07  4.93030E-13  1.76064E+04  0.00000E+00  1.0E-05
  5.250E-02  2.09900E-07  4.56610E-13  1.63058E+04  0.00000E+00  1.0E-05
  5.500E-02  2.30367E-07  4.24099E-13  1.51449E+04  0.00000E+00  1.0E-05
  5.750E-02  2.51785E-07  3.94738E-13  1.40963E+04  0.00000E+00  1.0E-05
  6.000E-02  2.74156E-07  3.68176E-13  1.31478E+04  0.00000E+00  1.0E-05
  6.250E-02  2.97478E-07  3.44098E-13  1.22880E+04  0.00000E+00  1.0E-05
  6.500E-02  3.21752E-07  3.22224E-13  1.15068E+04  0.00000E+00  1.0E-05
  6.750E-02  3.46978E-07  3.02234E-13  1.07930E+04  0.00000E+00  1.0E-05
  7.000E-02  3.73156E-07  2.83918E-13  1.01389E+04  0.00000E+00  1.0E-05
  7.250E-02  4.00286E-07  2.67097E-13  9.53822E+03  0.00000E+00  1.0E-05
  7.500E-02  4.28368E-07  2.51575E-13  8.98389E+03  0.00000E+00  1.0E-05
  7.750E-02  4.57402E-07  2.37206E-13  8.47079E+03  0.00000E+00  1.0E-05
  8.000E-02  4.87388E-07  2.23897E-13  7.99550E+03  0.00000E+00  1.0E-05
  8.250E-02  5.18325E-07  2.11545E-13  7.55440E+03  0.00000E+00  1.0E-05
  8.500E-02  5.50215E-07  2.00030E-13  7.14318E+03  0.00000E+00  1.0E-05
  8.750E-02  5.83057E-07  1.89259E-13  6.75857E+03  0.00000E+00  1.0E-05
  9.000E-02  6.16850E-07  1.79208E-13  6.39963E+03  0.00000E+00  1.0E-05
  9.250E-02  6.51596E-07  1.69815E-13  6.06421E+03  0.00000E+00  1.0E-05
  9.500E-02  6.87293E-07  1.61012E-13  5.74985E+03  0.00000E+00  1.0E-05
  9.750E-02  7.23942E-07  1.52719E-13  5.45369E+03  0.00000E+00  1.0E-05
  1.000E-01  7.61543E-07  1.44944E-13  5.17604E+03  0.00000E+00  1.0E-05
  1.250E-01  1.18991E-06  8.83045E-14  3.15341E+03  0.00000E+00  1.0E-05
  1.500E-01  1.71347E-06  5.57788E-14  1.99190E+03  0.00000E+00  1.0E-05
  1.750E-01  2.33223E-06  3.74042E-14  1.33573E+03  0.00000E+00  1.0E-05
  2.000E-01  3.04617E-06  2.61211E-14  9.32802E+02  0.00000E+00  1.0E-05
  2.250E-01  3.85531E-06  1.87532E-14  6.69689E+02  0.00000E+00  1.0E-05
  2.500E-01  4.75964E-06  1.37945E-14  4.92610E+02  0.00000E+00  1.0E-05
  2.750E-01  5.75916E-06  1.03741E-14  3.70466E+02  0.00000E+00  1.0E-05
  3.000E-01  6.85388E-06  7.94008E-15  2.83545E+02  0.00000E+00  1.0E-05
  3.250E-01  8.04378E-06  6.15386E-15  2.19758E+02  0.00000E+00  1.0E-05
  3.500E-01  9.32888E-06  4.82656E-15  1.72360E+02  0.00000E+00  1.0E-05
  3.750E-01  1.07092E-05  3.83813E-15  1.37062E+02  0.00000E+00  1.0E-05
  4.000E-01  1.21846E-05  3.09049E-15  1.10363E+02  0.00000E+00  1.0E-05
  4.250E-01  1.37553E-05  2.51680E-15  8.98767E+01  0.00000E+00  1.0E-05
  4.500E-01  1.54212E-05  2.07092E-15  7.39538E+01  0.00000E+00  1.0E-05
  4.750E-01  1.71822E-05  1.72246E-15  6.15103E+01  0.00000E+00  1.0E-05
  5.000E-01  1.90385E-05  1.44612E-15  5.16419E+01  0.00000E+00  1.0E-05
  5.250E-01  2.09899E-05  1.22596E-15  4.37797E+01  0.00000E+00  1.0E-05
  5.500E-01  2.30365E-05  1.04685E-15  3.73837E+01  0.00000E+00  1.0E-05
  5.750E-01  2.51783E-05  9.00267E-16  3.21491E+01  0.00000E+00  1.0E-05
  6.000E-01  2.74153E-05  7.79151E-16  2.78240E+01  0.00000E+00  1.0E-05
  6.250E-01  2.97475E-05  6.78255E-16  2.42209E+01  0.00000E+00  1.0E-05
  6.500E-01  3.21749E-05  5.93360E-16  2.11893E+01  0.00000E+00  1.0E-05
  6.750E-01  3.46974E-05  5.21303E-16  1.86161E+01  0.00000E+00  1.0E-05
  7.000E-01  3.73152E-05  4.59980E-16  1.64262E+01  0.00000E+00  1.0E-05
  7.250E-01  4.00281E-05  4.07541E-16  1.45535E+01  0.00000E+00  1.0E-05
  7.500E-01  4.28362E-05  3.62294E-16  1.29378E+01  0.00000E+00  1.0E-05
  7.750E-01  4.57395E-05  3.23105E-16  1.15383E+01  0.00000E+00  1.0E-05
  8.000E-01  4.87380E-05  2.89057E-16  1.03224E+01  0.00000E+00  1.0E-05
  8.250E-01  5.18317E-05  2.59339E-16  9.26118E+00  0.00000E+00  1.0E-05
  8.500E-01  5.50205E-05  2.33243E-16  8.32926E+00  0.00000E+00  1.0E-05
  8.750E-01  5.83045E-05  2.10243E-16  7.50792E+00  0.00000E+00  1.0E-05
  9.000E-01  6.16838E-05  1.89975E-16  6.78412E+00  0.00000E+00  1.0E-05
  9.250E-01  6.51582E-05  1.72061E-16  6.14439E+00  0.00000E+00  1.0E-05
  9.500E-01  6.87277E-05  1.56169E-16  5.57690E+00  0.00000E+00  1.0E-05
  9.750E-01  7.23925E-05  1.42017E-16  5.07153E+00  0.00000E+00  1.0E-05
  1.000E+00  7.61524E-05  1.29424E-16  4.62180E+00  0.00000E+00  6.2E-06
  1.100E+00  9.21439E-05  9.09971E-17  3.24957E+00  0.00000E+00  4.7E-06
  1.200E+00  1.09658E-04  6.57899E-17  2.34940E+00  0.00000E+00  2.5E-06
  1.300E+00  1.28695E-04  4.87339E-17  1.74032E+00  0.00000E+00  4.9E-07
  1.400E+00  1.49255E-04  3.68611E-17  1.31633E+00  0.00000E+00  1.0E-06
  1.500E+00  1.71338E-04  2.84273E-17  1.01516E+00  0.00000E+00  1.8E-06
  1.600E+00  1.94942E-04  2.22889E-17  7.95950E-01  0.00000E+00  1.9E-06
  1.700E+00  2.20070E-04  1.77285E-17  6.33095E-01  0.00000E+00  1.5E-06
  1.800E+00  2.46720E-04  1.42780E-17  5.09878E-01  0.00000E+00  8.6E-07
  1.900E+00  2.74892E-04  1.16320E-17  4.15385E-01  0.00000E+00  1.3E-07
  2.000E+00  3.04586E-04  9.57426E-18  3.41903E-01  0.00000E+00  4.6E-07
  2.100E+00  3.35803E-04  7.95358E-18  2.84027E-01  0.00000E+00  8.1E-07
  2.200E+00  3.68542E-04  6.65984E-18  2.37827E-01  0.00000E+00  8.7E-07
  2.300E+00  4.02802E-04  5.61946E-18  2.00674E-01  0.00000E+00  7.0E-07
  2.400E+00  4.38585E-04  4.77489E-18  1.70514E-01  0.00000E+00  3.9E-07
  2.500E+00  4.75889E-04  4.08339E-18  1.45820E-01  0.00000E+00  1.0E-07
  2.600E+00  5.14715E-04  3.51186E-18  1.25411E-01  0.00000E+00  2.7E-07
  2.700E+00  5.55063E-04  3.03694E-18  1.08451E-01  0.00000E+00  4.4E-07
  2.800E+00  5.96931E-04  2.63971E-18  9.42659E-02  0.00000E+00  4.8E-07
  2.900E+00  6.40321E-04  2.30538E-18  8.23266E-02  0.00000E+00  3.8E-07
  3.000E+00  6.85233E-04  2.02214E-18  7.22119E-02  0.00000E+00  2.1E-07
  3.100E+00  7.31665E-04  1.78103E-18  6.36018E-02  0.00000E+00  1.0E-07
  3.200E+00  7.79618E-04  1.57486E-18  5.62392E-02  0.00000E+00  1.7E-07
  3.300E+00  8.29092E-04  1.39770E-18  4.99127E-02  0.00000E+00  2.8E-07
  3.400E+00  8.80086E-04  1.24473E-18  4.44503E-02  0.00000E+00  2.9E-07
  3.500E+00  9.32601E-04  1.11211E-18  3.97140E-02  0.00000E+00  2.3E-07
  3.600E+00  9.86636E-04  9.96717E-19  3.55934E-02  0.00000E+00  1.2E-07
  3.700E+00  1.04219E-03  8.95946E-19  3.19948E-02  0.00000E+00  1.0E-07
  3.800E+00  1.09927E-03  8.07608E-19  2.88402E-02  0.00000E+00  1.2E-07
  3.900E+00  1.15786E-03  7.29886E-19  2.60647E-02  0.00000E+00  1.9E-07
  4.000E+00  1.21797E-03  6.61323E-19  2.36163E-02  0.00000E+00  1.9E-07
  4.100E+00  1.27961E-03  6.00651E-19  2.14496E-02  0.00000E+00  1.5E-07
  4.200E+00  1.34276E-03  5.46802E-19  1.95266E-02  0.00000E+00  1.0E-07
  4.300E+00  1.40743E-03  4.98855E-19  1.78144E-02  0.00000E+00  1.0E-07
  4.400E+00  1.47362E-03  4.56072E-19  1.62866E-02  0.00000E+00  1.0E-07
  4.500E+00  1.54133E-03  4.17798E-19  1.49198E-02  0.00000E+00  1.3E-07
  4.600E+00  1.61056E-03  3.83473E-19  1.36941E-02  0.00000E+00  1.4E-07
  4.700E+00  1.68131E-03  3.52609E-19  1.25919E-02  0.00000E+00  1.0E-07
  4.800E+00  1.75357E-03  3.24802E-19  1.15989E-02  0.00000E+00  1.0E-07
  4.900E+00  1.82735E-03  2.99697E-19  1.07024E-02  0.00000E+00  1.0E-07
  5.000E+00  1.90265E-03  2.76984E-19  9.89128E-03  0.00000E+00  1.0E-07
  5.100E+00  1.97947E-03  2.56390E-19  9.15585E-03  0.00000E+00  1.0E-07
  5.200E+00  2.05780E-03  2.37683E-19  8.48783E-03  0.00000E+00  1.0E-07
  5.300E+00  2.13765E-03  2.20662E-19  7.87999E-03  0.00000E+00  1.0E-07
  5.400E+00  2.21902E-03  2.05147E-19  7.32592E-03  0.00000E+00  1.0E-07
  5.500E+00  2.30190E-03  1.90978E-19  6.81993E-03  0.00000E+00  1.0E-07
  5.600E+00  2.38630E-03  1.78017E-19  6.35709E-03  0.00000E+00  1.0E-07
  5.700E+00  2.47222E-03  1.66144E-19  5.93311E-03  0.00000E+00  1.0E-07
  5.800E+00  2.55965E-03  1.55251E-19  5.54412E-03  0.00000E+00  1.0E-07
  5.900E+00  2.64859E-03  1.45242E-19  5.18667E-03  0.00000E+00  1.0E-07
  6.000E+00  2.73905E-03  1.36030E-19  4.85771E-03  0.00000E+00  1.0E-07
  6.100E+00  2.83103E-03  1.27542E-19  4.55460E-03  0.00000E+00  1.0E-07
  6.200E+00  2.92452E-03  1.19710E-19  4.27493E-03  0.00000E+00  1.0E-07
  6.300E+00  3.01952E-03  1.12475E-19  4.01655E-03  0.00000E+00  1.0E-07
  6.400E+00  3.11604E-03  1.05780E-19  3.77749E-03  0.00000E+00  1.0E-07
  6.500E+00  3.21407E-03  9.95803E-20  3.55608E-03  0.00000E+00  1.0E-07
  6.600E+00  3.31362E-03  9.38313E-20  3.35078E-03  0.00000E+00  1.0E-07
  6.700E+00  3.41468E-03  8.84942E-20  3.16019E-03  0.00000E+00  1.0E-07
  6.800E+00  3.51725E-03  8.35333E-20  2.98303E-03  0.00000E+00  1.0E-07
  6.900E+00  3.62133E-03  7.89178E-20  2.81821E-03  0.00000E+00  1.0E-07
  7.000E+00  3.72692E-03  7.46191E-20  2.66470E-03  0.00000E+00  1.0E-07
  7.100E+00  3.83403E-03  7.06115E-20  2.52158E-03  0.00000E+00  1.0E-07
  7.200E+00  3.94265E-03  6.68710E-20  2.38801E-03  0.00000E+00  1.0E-07
  7.300E+00  4.05278E-03  6.33767E-20  2.26322E-03  0.00000E+00  1.0E-07
  7.400E+00  4.16442E-03  6.01096E-20  2.14655E-03  0.00000E+00  1.0E-07
  7.500E+00  4.27757E-03  5.70520E-20  2.03736E-03  0.00000E+00  1.0E-07
  7.600E+00  4.39223E-03  5.41877E-20  1.93508E-03  0.00000E+00  1.0E-07
  7.700E+00  4.50840E-03  5.15023E-20  1.83918E-03  0.00000E+00  1.0E-07
  7.800E+00  4.62608E-03  4.89826E-20  1.74920E-03  0.00000E+00  1.0E-07
  7.900E+00  4.74527E-03  4.66164E-20  1.66470E-03  0.00000E+00  1.0E-07
  8.000E+00  4.86597E-03  4.43925E-20  1.58528E-03  0.00000E+00  1.0E-07
  8.100E+00  4.98817E-03  4.23006E-20  1.51058E-03  0.00000E+00  1.0E-07
  8.200E+00  5.11188E-03  4.03316E-20  1.44027E-03  0.00000E+00  1.0E-07
  8.300E+00  5.23711E-03  3.84768E-20  1.37403E-03  0.00000E+00  1.0E-07
  8.400E+00  5.36383E-03  3.67284E-20  1.31160E-03  0.00000E+00  1.0E-07
  8.500E+00  5.49207E-03  3.50789E-20  1.25269E-03  0.00000E+00  1.0E-07
  8.600E+00  5.62181E-03  3.35218E-20  1.19709E-03  0.00000E+00  1.0E-07
  8.700E+00  5.75306E-03  3.20510E-20  1.14456E-03  0.00000E+00  1.0E-07
  8.800E+00  5.88581E-03  3.06607E-20  1.09491E-03  0.00000E+00  1.0E-07
  8.900E+00  6.02007E-03  2.93455E-20  1.04795E-03  0.00000E+00  1.0E-07
  9.000E+00  6.15583E-03  2.81008E-20  1.00350E-03  0.00000E+00  1.0E-07
  9.100E+00  6.29310E-03  2.69220E-20  9.61404E-04  0.00000E+00  1.0E-07
  9.200E+00  6.43187E-03  2.58050E-20  9.21514E-04  0.00000E+00  1.0E-07
  9.300E+00  6.57214E-03  2.47459E-20  8.83692E-04  0.00000E+00  1.0E-07
  9.400E+00  6.71392E-03  2.37410E-20  8.47806E-04  0.00000E+00  1.0E-07
  9.500E+00  6.85720E-03  2.27871E-20  8.13742E-04  0.00000E+00  1.0E-07
  9.600E+00  7.00198E-03  2.18812E-20  7.81391E-04  0.00000E+00  1.0E-07
  9.700E+00  7.14827E-03  2.10202E-20  7.50646E-04  0.00000E+00  1.0E-07
  9.800E+00  7.29605E-03  2.02016E-20  7.21412E-04  0.00000E+00  1.0E-07
  9.900E+00  7.44534E-03  1.94229E-20  6.93603E-04  0.00000E+00  1.0E-07
  1.000E+01  7.59612E-03  1.86817E-20  6.67136E-04  0.00000E+00  1.0E-07
  1.025E+01  7.97965E-03  1.69792E-20  6.06338E-04  0.00000E+00  1.0E-07
  1.050E+01  8.37255E-03  1.54681E-20  5.52378E-04  0.00000E+00  1.0E-07
  1.075E+01  8.77480E-03  1.41232E-20  5.04349E-04  0.00000E+00  1.0E-07
  1.100E+01  9.18641E-03  1.29228E-20  4.61483E-04  0.00000E+00  1.0E-07
  1.125E+01  9.60736E-03  1.18487E-20  4.23124E-04  0.00000E+00  1.0E-07
  1.150E+01  1.00376E-02  1.08851E-20  3.88713E-04  0.00000E+00  1.0E-07
  1.175E+01  1.04773E-02  1.00186E-20  3.57769E-04  0.00000E+00  1.0E-07
  1.200E+01  1.09262E-02  9.23757E-21  3.29879E-04  0.00000E+00  1.0E-07
  1.225E+01  1.13844E-02  8.53213E-21  3.04688E-04  0.00000E+00  1.0E-07
  1.250E+01  1.18520E-02  7.89358E-21  2.81885E-04  0.00000E+00  1.0E-07
  1.275E+01  1.23288E-02  7.31441E-21  2.61202E-04  0.00000E+00  1.0E-07
  1.300E+01  1.28150E-02  6.78807E-21  2.42406E-04  0.00000E+00  1.0E-07
  1.325E+01  1.33104E-02  6.30883E-21  2.25292E-04  0.00000E+00  1.0E-07
  1.350E+01  1.38150E-02  5.87175E-21  2.09684E-04  0.00000E+00  1.0E-07
  1.375E+01  1.43290E-02  5.47238E-21  1.95422E-04  0.00000E+00  1.0E-07
  1.400E+01  1.48521E-02  5.10685E-21  1.82369E-04  0.00000E+00  1.0E-07
  1.425E+01  1.53845E-02  4.77180E-21  1.70404E-04  0.00000E+00  1.0E-07
  1.450E+01  1.59262E-02  4.46418E-21  1.59419E-04  0.00000E+00  1.0E-07
  1.475E+01  1.64770E-02  4.18132E-21  1.49318E-04  0.00000E+00  1.0E-07
  1.500E+01  1.70371E-02  3.92084E-21  1.40016E-04  0.00000E+00  1.0E-07
  1.525E+01  1.76063E-02  3.68065E-21  1.31438E-04  0.00000E+00  1.0E-07
