 #
 # Subroutine ELSEPA. Elastic scattering of electrons and positrons
 #                    by neutral atoms and positive ions
 #
 # Projectile: electron
 # Kinetic energy = 3.70000E+06 eV = 1.35973E+05 a.u.
 #
 # WARNING: High-energy factorization with free-atom DF screening.
 #          Absorption, polarization and exchange corrections are
 #          switched off.
 #          Phase shifts are calculated for the bare nucleus.
 #          Scattering amplitudes are not evaluated.
 #
 # Element: Er,  Z =  68,  atomic weight = 1.67260E+02 g/mol
 #
 # Nuclear model: Fermi distribution
 #                Average radius = 5.89542E-13 cm
 #                Skin thickness = 5.46000E-14 cm
 #
 # Number of electrons = 68
 #
 # Total elastic cross section = 7.16918E-18 cm**2 = 2.56016E-01 a0**2
 # 1st transport cross section = 4.20442E-22 cm**2 = 1.50143E-05 a0**2
 # 2nd transport cross section = 1.14171E-21 cm**2 = 4.07714E-05 a0**2
 #
 #
 # Differential cross section:                       MU=(1-COS(THETA))/2
 #
 #  THETA        MU          DCS          DCS        Sherman      error
 #  (deg)                 (cm**2/sr)   (a0**2/sr)    function
 #----------------------------------------------------------------------
  0.000E+00  0.00000E+00  1.28130E-12  4.57561E+04  0.00000E+00  1.0E-05
  1.000E-04  7.61557E-13  1.28129E-12  4.57557E+04  0.00000E+00  1.0E-05
  1.250E-04  1.18994E-12  1.28129E-12  4.57555E+04  0.00000E+00  1.0E-05
  1.500E-04  1.71346E-12  1.28128E-12  4.57553E+04  0.00000E+00  1.0E-05
  1.750E-04  2.33225E-12  1.28127E-12  4.57550E+04  0.00000E+00  1.0E-05
  2.000E-04  3.04617E-12  1.28126E-12  4.57546E+04  0.00000E+00  1.0E-05
  2.250E-04  3.85530E-12  1.28125E-12  4.57543E+04  0.00000E+00  1.0E-05
  2.500E-04  4.75964E-12  1.28124E-12  4.57538E+04  0.00000E+00  1.0E-05
  2.750E-04  5.75917E-12  1.28122E-12  4.57534E+04  0.00000E+00  1.0E-05
  3.000E-04  6.85391E-12  1.28121E-12  4.57529E+04  0.00000E+00  1.0E-05
  3.250E-04  8.04379E-12  1.28119E-12  4.57523E+04  0.00000E+00  1.0E-05
  3.500E-04  9.32893E-12  1.28118E-12  4.57517E+04  0.00000E+00  1.0E-05
  3.750E-04  1.07092E-11  1.28116E-12  4.57510E+04  0.00000E+00  1.0E-05
  4.000E-04  1.21847E-11  1.28114E-12  4.57504E+04  0.00000E+00  1.0E-05
  4.250E-04  1.37554E-11  1.28112E-12  4.57496E+04  0.00000E+00  1.0E-05
  4.500E-04  1.54213E-11  1.28110E-12  4.57488E+04  0.00000E+00  1.0E-05
  4.750E-04  1.71823E-11  1.28107E-12  4.57480E+04  0.00000E+00  1.0E-05
  5.000E-04  1.90386E-11  1.28105E-12  4.57471E+04  0.00000E+00  1.0E-05
  5.250E-04  2.09900E-11  1.28102E-12  4.57462E+04  0.00000E+00  1.0E-05
  5.500E-04  2.30367E-11  1.28100E-12  4.57453E+04  0.00000E+00  1.0E-05
  5.750E-04  2.51785E-11  1.28097E-12  4.57442E+04  0.00000E+00  1.0E-05
  6.000E-04  2.74156E-11  1.28094E-12  4.57432E+04  0.00000E+00  1.0E-05
  6.250E-04  2.97478E-11  1.28091E-12  4.57421E+04  0.00000E+00  1.0E-05
  6.500E-04  3.21752E-11  1.28088E-12  4.57410E+04  0.00000E+00  1.0E-05
  6.750E-04  3.46979E-11  1.28084E-12  4.57398E+04  0.00000E+00  1.0E-05
  7.000E-04  3.73157E-11  1.28081E-12  4.57385E+04  0.00000E+00  1.0E-05
  7.250E-04  4.00286E-11  1.28077E-12  4.57373E+04  0.00000E+00  1.0E-05
  7.500E-04  4.28368E-11  1.28074E-12  4.57359E+04  0.00000E+00  1.0E-05
  7.750E-04  4.57402E-11  1.28070E-12  4.57346E+04  0.00000E+00  1.0E-05
  8.000E-04  4.87388E-11  1.28066E-12  4.57332E+04  0.00000E+00  1.0E-05
  8.250E-04  5.18325E-11  1.28062E-12  4.57317E+04  0.00000E+00  1.0E-05
  8.500E-04  5.50215E-11  1.28058E-12  4.57302E+04  0.00000E+00  1.0E-05
  8.750E-04  5.83057E-11  1.28053E-12  4.57287E+04  0.00000E+00  1.0E-05
  9.000E-04  6.16850E-11  1.28049E-12  4.57271E+04  0.00000E+00  1.0E-05
  9.250E-04  6.51595E-11  1.28044E-12  4.57254E+04  0.00000E+00  1.0E-05
  9.500E-04  6.87293E-11  1.28040E-12  4.57238E+04  0.00000E+00  1.0E-05
  9.750E-04  7.23943E-11  1.28035E-12  4.57220E+04  0.00000E+00  1.0E-05
  1.000E-03  7.61544E-11  1.28030E-12  4.57203E+04  0.00000E+00  1.0E-05
  1.250E-03  1.18991E-10  1.27973E-12  4.57001E+04  0.00000E+00  1.0E-05
  1.500E-03  1.71347E-10  1.27905E-12  4.56756E+04  0.00000E+00  1.0E-05
  1.750E-03  2.33223E-10  1.27823E-12  4.56465E+04  0.00000E+00  1.0E-05
  2.000E-03  3.04617E-10  1.27730E-12  4.56130E+04  0.00000E+00  1.0E-05
  2.250E-03  3.85531E-10  1.27623E-12  4.55752E+04  0.00000E+00  1.0E-05
  2.500E-03  4.75965E-10  1.27505E-12  4.55329E+04  0.00000E+00  1.0E-05
  2.750E-03  5.75917E-10  1.27374E-12  4.54862E+04  0.00000E+00  1.0E-05
  3.000E-03  6.85389E-10  1.27232E-12  4.54352E+04  0.00000E+00  1.0E-05
  3.250E-03  8.04380E-10  1.27077E-12  4.53799E+04  0.00000E+00  1.0E-05
  3.500E-03  9.32891E-10  1.26910E-12  4.53202E+04  0.00000E+00  1.0E-05
  3.750E-03  1.07092E-09  1.26731E-12  4.52563E+04  0.00000E+00  1.0E-05
  4.000E-03  1.21847E-09  1.26540E-12  4.51881E+04  0.00000E+00  1.0E-05
  4.250E-03  1.37554E-09  1.26337E-12  4.51158E+04  0.00000E+00  1.0E-05
  4.500E-03  1.54213E-09  1.26123E-12  4.50392E+04  0.00000E+00  1.0E-05
  4.750E-03  1.71823E-09  1.25897E-12  4.49586E+04  0.00000E+00  1.0E-05
  5.000E-03  1.90386E-09  1.25659E-12  4.48738E+04  0.00000E+00  1.0E-05
  5.250E-03  2.09900E-09  1.25411E-12  4.47850E+04  0.00000E+00  1.0E-05
  5.500E-03  2.30367E-09  1.25151E-12  4.46921E+04  0.00000E+00  1.0E-05
  5.750E-03  2.51785E-09  1.24880E-12  4.45953E+04  0.00000E+00  1.0E-05
  6.000E-03  2.74156E-09  1.24597E-12  4.44946E+04  0.00000E+00  1.0E-05
  6.250E-03  2.97478E-09  1.24304E-12  4.43899E+04  0.00000E+00  1.0E-05
  6.500E-03  3.21752E-09  1.24001E-12  4.42815E+04  0.00000E+00  1.0E-05
  6.750E-03  3.46978E-09  1.23687E-12  4.41693E+04  0.00000E+00  1.0E-05
  7.000E-03  3.73156E-09  1.23362E-12  4.40533E+04  0.00000E+00  1.0E-05
  7.250E-03  4.00286E-09  1.23027E-12  4.39337E+04  0.00000E+00  1.0E-05
  7.500E-03  4.28368E-09  1.22682E-12  4.38104E+04  0.00000E+00  1.0E-05
  7.750E-03  4.57402E-09  1.22327E-12  4.36836E+04  0.00000E+00  1.0E-05
  8.000E-03  4.87388E-09  1.21962E-12  4.35533E+04  0.00000E+00  1.0E-05
  8.250E-03  5.18326E-09  1.21587E-12  4.34195E+04  0.00000E+00  1.0E-05
  8.500E-03  5.50215E-09  1.21203E-12  4.32823E+04  0.00000E+00  1.0E-05
  8.750E-03  5.83057E-09  1.20809E-12  4.31418E+04  0.00000E+00  1.0E-05
  9.000E-03  6.16850E-09  1.20407E-12  4.29981E+04  0.00000E+00  1.0E-05
  9.250E-03  6.51596E-09  1.19995E-12  4.28511E+04  0.00000E+00  1.0E-05
  9.500E-03  6.87293E-09  1.19575E-12  4.27010E+04  0.00000E+00  1.0E-05
  9.750E-03  7.23942E-09  1.19146E-12  4.25479E+04  0.00000E+00  1.0E-05
  1.000E-02  7.61544E-09  1.18709E-12  4.23917E+04  0.00000E+00  1.0E-05
  1.250E-02  1.18991E-08  1.13914E-12  4.06795E+04  0.00000E+00  1.0E-05
  1.500E-02  1.71347E-08  1.08505E-12  3.87480E+04  0.00000E+00  1.0E-05
  1.750E-02  2.33223E-08  1.02654E-12  3.66584E+04  0.00000E+00  1.0E-05
  2.000E-02  3.04617E-08  9.65506E-13  3.44788E+04  0.00000E+00  1.0E-05
  2.250E-02  3.85531E-08  9.03883E-13  3.22783E+04  0.00000E+00  1.0E-05
  2.500E-02  4.75965E-08  8.43063E-13  3.01063E+04  0.00000E+00  1.0E-05
  2.750E-02  5.75917E-08  7.83996E-13  2.79970E+04  0.00000E+00  1.0E-05
  3.000E-02  6.85389E-08  7.27518E-13  2.59801E+04  0.00000E+00  1.0E-05
  3.250E-02  8.04380E-08  6.74396E-13  2.40831E+04  0.00000E+00  1.0E-05
  3.500E-02  9.32891E-08  6.25037E-13  2.23205E+04  0.00000E+00  1.0E-05
  3.750E-02  1.07092E-07  5.79318E-13  2.06878E+04  0.00000E+00  1.0E-05
  4.000E-02  1.21847E-07  5.37256E-13  1.91858E+04  0.00000E+00  1.0E-05
  4.250E-02  1.37554E-07  4.98830E-13  1.78135E+04  0.00000E+00  1.0E-05
  4.500E-02  1.54213E-07  4.63991E-13  1.65694E+04  0.00000E+00  1.0E-05
  4.750E-02  1.71823E-07  4.32262E-13  1.54364E+04  0.00000E+00  1.0E-05
  5.000E-02  1.90386E-07  4.03416E-13  1.44063E+04  0.00000E+00  1.0E-05
  5.250E-02  2.09900E-07  3.77219E-13  1.34707E+04  0.00000E+00  1.0E-05
  5.500E-02  2.30367E-07  3.53522E-13  1.26245E+04  0.00000E+00  1.0E-05
  5.750E-02  2.51785E-07  3.31931E-13  1.18535E+04  0.00000E+00  1.0E-05
  6.000E-02  2.74156E-07  3.12242E-13  1.11504E+04  0.00000E+00  1.0E-05
  6.250E-02  2.97478E-07  2.94265E-13  1.05084E+04  0.00000E+00  1.0E-05
  6.500E-02  3.21752E-07  2.77822E-13  9.92120E+03  0.00000E+00  1.0E-05
  6.750E-02  3.46978E-07  2.62715E-13  9.38174E+03  0.00000E+00  1.0E-05
  7.000E-02  3.73156E-07  2.48807E-13  8.88508E+03  0.00000E+00  1.0E-05
  7.250E-02  4.00286E-07  2.35976E-13  8.42685E+03  0.00000E+00  1.0E-05
  7.500E-02  4.28368E-07  2.24082E-13  8.00213E+03  0.00000E+00  1.0E-05
  7.750E-02  4.57402E-07  2.13026E-13  7.60728E+03  0.00000E+00  1.0E-05
  8.000E-02  4.87388E-07  2.02738E-13  7.23991E+03  0.00000E+00  1.0E-05
  8.250E-02  5.18325E-07  1.93147E-13  6.89741E+03  0.00000E+00  1.0E-05
  8.500E-02  5.50215E-07  1.84162E-13  6.57653E+03  0.00000E+00  1.0E-05
  8.750E-02  5.83057E-07  1.75711E-13  6.27475E+03  0.00000E+00  1.0E-05
  9.000E-02  6.16850E-07  1.67780E-13  5.99152E+03  0.00000E+00  1.0E-05
  9.250E-02  6.51596E-07  1.60324E-13  5.72528E+03  0.00000E+00  1.0E-05
  9.500E-02  6.87293E-07  1.53291E-13  5.47412E+03  0.00000E+00  1.0E-05
  9.750E-02  7.23942E-07  1.46614E-13  5.23568E+03  0.00000E+00  1.0E-05
  1.000E-01  7.61543E-07  1.40309E-13  5.01052E+03  0.00000E+00  1.0E-05
  1.250E-01  1.18991E-06  9.23244E-14  3.29696E+03  0.00000E+00  1.0E-05
  1.500E-01  1.71347E-06  6.16718E-14  2.20234E+03  0.00000E+00  1.0E-05
  1.750E-01  2.33223E-06  4.31397E-14  1.54055E+03  0.00000E+00  1.0E-05
  2.000E-01  3.04617E-06  3.10172E-14  1.10765E+03  0.00000E+00  1.0E-05
  2.250E-01  3.85531E-06  2.27056E-14  8.10833E+02  0.00000E+00  1.0E-05
  2.500E-01  4.75964E-06  1.69752E-14  6.06195E+02  0.00000E+00  1.0E-05
  2.750E-01  5.75916E-06  1.29576E-14  4.62723E+02  0.00000E+00  1.0E-05
  3.000E-01  6.85388E-06  1.00577E-14  3.59168E+02  0.00000E+00  1.0E-05
  3.250E-01  8.04378E-06  7.89679E-15  2.81999E+02  0.00000E+00  1.0E-05
  3.500E-01  9.32888E-06  6.26107E-15  2.23587E+02  0.00000E+00  1.0E-05
  3.750E-01  1.07092E-05  5.02272E-15  1.79365E+02  0.00000E+00  1.0E-05
  4.000E-01  1.21846E-05  4.07078E-15  1.45370E+02  0.00000E+00  1.0E-05
  4.250E-01  1.37553E-05  3.32807E-15  1.18847E+02  0.00000E+00  1.0E-05
  4.500E-01  1.54212E-05  2.74110E-15  9.78866E+01  0.00000E+00  1.0E-05
  4.750E-01  1.71822E-05  2.27820E-15  8.13559E+01  0.00000E+00  1.0E-05
  5.000E-01  1.90385E-05  1.90835E-15  6.81486E+01  0.00000E+00  1.0E-05
  5.250E-01  2.09899E-05  1.61273E-15  5.75916E+01  0.00000E+00  1.0E-05
  5.500E-01  2.30365E-05  1.37166E-15  4.89829E+01  0.00000E+00  1.0E-05
  5.750E-01  2.51783E-05  1.17472E-15  4.19501E+01  0.00000E+00  1.0E-05
  6.000E-01  2.74153E-05  1.01250E-15  3.61570E+01  0.00000E+00  1.0E-05
  6.250E-01  2.97475E-05  8.77961E-16  3.13526E+01  0.00000E+00  1.0E-05
  6.500E-01  3.21749E-05  7.65630E-16  2.73411E+01  0.00000E+00  1.0E-05
  6.750E-01  3.46974E-05  6.70841E-16  2.39562E+01  0.00000E+00  1.0E-05
  7.000E-01  3.73152E-05  5.90667E-16  2.10931E+01  0.00000E+00  1.0E-05
  7.250E-01  4.00281E-05  5.22543E-16  1.86604E+01  0.00000E+00  1.0E-05
  7.500E-01  4.28362E-05  4.64192E-16  1.65766E+01  0.00000E+00  1.0E-05
  7.750E-01  4.57395E-05  4.13935E-16  1.47819E+01  0.00000E+00  1.0E-05
  8.000E-01  4.87380E-05  3.70444E-16  1.32288E+01  0.00000E+00  1.0E-05
  8.250E-01  5.18317E-05  3.32609E-16  1.18777E+01  0.00000E+00  1.0E-05
  8.500E-01  5.50205E-05  2.99483E-16  1.06947E+01  0.00000E+00  1.0E-05
  8.750E-01  5.83045E-05  2.70345E-16  9.65419E+00  0.00000E+00  1.0E-05
  9.000E-01  6.16838E-05  2.44684E-16  8.73783E+00  0.00000E+00  1.0E-05
  9.250E-01  6.51582E-05  2.22010E-16  7.92810E+00  0.00000E+00  1.0E-05
  9.500E-01  6.87277E-05  2.01891E-16  7.20966E+00  0.00000E+00  1.0E-05
  9.750E-01  7.23925E-05  1.83959E-16  6.56931E+00  0.00000E+00  1.0E-05
  1.000E+00  7.61524E-05  1.67980E-16  5.99869E+00  0.00000E+00  8.5E-06
  1.100E+00  9.21439E-05  1.19015E-16  4.25009E+00  0.00000E+00  6.4E-06
  1.200E+00  1.09658E-04  8.65920E-17  3.09226E+00  0.00000E+00  3.5E-06
  1.300E+00  1.28695E-04  6.44397E-17  2.30118E+00  0.00000E+00  7.4E-07
  1.400E+00  1.49255E-04  4.88830E-17  1.74564E+00  0.00000E+00  1.3E-06
  1.500E+00  1.71338E-04  3.77784E-17  1.34909E+00  0.00000E+00  2.4E-06
  1.600E+00  1.94942E-04  2.96621E-17  1.05925E+00  0.00000E+00  2.6E-06
  1.700E+00  2.20070E-04  2.36131E-17  8.43240E-01  0.00000E+00  2.1E-06
  1.800E+00  2.46720E-04  1.90272E-17  6.79475E-01  0.00000E+00  1.2E-06
  1.900E+00  2.74892E-04  1.55078E-17  5.53795E-01  0.00000E+00  2.2E-07
  2.000E+00  3.04586E-04  1.27695E-17  4.56009E-01  0.00000E+00  6.0E-07
  2.100E+00  3.35803E-04  1.06124E-17  3.78975E-01  0.00000E+00  1.1E-06
  2.200E+00  3.68542E-04  8.89047E-18  3.17485E-01  0.00000E+00  1.2E-06
  2.300E+00  4.02802E-04  7.50584E-18  2.68038E-01  0.00000E+00  9.7E-07
  2.400E+00  4.38585E-04  6.38180E-18  2.27898E-01  0.00000E+00  5.5E-07
  2.500E+00  4.75889E-04  5.46141E-18  1.95030E-01  0.00000E+00  1.0E-07
  2.600E+00  5.14715E-04  4.70068E-18  1.67864E-01  0.00000E+00  3.4E-07
  2.700E+00  5.55063E-04  4.06833E-18  1.45283E-01  0.00000E+00  5.9E-07
  2.800E+00  5.96931E-04  3.53924E-18  1.26388E-01  0.00000E+00  6.5E-07
  2.900E+00  6.40321E-04  3.09371E-18  1.10478E-01  0.00000E+00  5.3E-07
  3.000E+00  6.85233E-04  2.71603E-18  9.69913E-02  0.00000E+00  3.0E-07
  3.100E+00  7.31665E-04  2.39431E-18  8.55024E-02  0.00000E+00  1.0E-07
  3.200E+00  7.79618E-04  2.11899E-18  7.56705E-02  0.00000E+00  2.2E-07
  3.300E+00  8.29092E-04  1.88224E-18  6.72159E-02  0.00000E+00  3.7E-07
  3.400E+00  8.80086E-04  1.67763E-18  5.99091E-02  0.00000E+00  4.0E-07
  3.500E+00  9.32601E-04  1.50005E-18  5.35676E-02  0.00000E+00  3.2E-07
  3.600E+00  9.86636E-04  1.34541E-18  4.80456E-02  0.00000E+00  1.7E-07
  3.700E+00  1.04219E-03  1.21025E-18  4.32189E-02  0.00000E+00  1.0E-07
  3.800E+00  1.09927E-03  1.09166E-18  3.89837E-02  0.00000E+00  1.5E-07
  3.900E+00  1.15786E-03  9.87204E-19  3.52537E-02  0.00000E+00  2.5E-07
  4.000E+00  1.21797E-03  8.94986E-19  3.19605E-02  0.00000E+00  2.7E-07
  4.100E+00  1.27961E-03  8.13315E-19  2.90440E-02  0.00000E+00  2.1E-07
  4.200E+00  1.34276E-03  7.40773E-19  2.64535E-02  0.00000E+00  1.1E-07
  4.300E+00  1.40743E-03  6.76120E-19  2.41447E-02  0.00000E+00  1.0E-07
  4.400E+00  1.47362E-03  6.18390E-19  2.20831E-02  0.00000E+00  1.1E-07
  4.500E+00  1.54133E-03  5.66713E-19  2.02377E-02  0.00000E+00  1.8E-07
  4.600E+00  1.61056E-03  5.20339E-19  1.85816E-02  0.00000E+00  1.9E-07
  4.700E+00  1.68131E-03  4.78608E-19  1.70914E-02  0.00000E+00  1.5E-07
  4.800E+00  1.75357E-03  4.40992E-19  1.57481E-02  0.00000E+00  1.0E-07
  4.900E+00  1.82735E-03  4.07014E-19  1.45347E-02  0.00000E+00  1.0E-07
  5.000E+00  1.90265E-03  3.76259E-19  1.34364E-02  0.00000E+00  1.0E-07
  5.100E+00  1.97947E-03  3.48358E-19  1.24401E-02  0.00000E+00  1.3E-07
  5.200E+00  2.05780E-03  3.23004E-19  1.15347E-02  0.00000E+00  1.4E-07
  5.300E+00  2.13765E-03  2.99927E-19  1.07106E-02  0.00000E+00  1.0E-07
  5.400E+00  2.21902E-03  2.78883E-19  9.95911E-03  0.00000E+00  1.0E-07
  5.500E+00  2.30190E-03  2.59660E-19  9.27262E-03  0.00000E+00  1.0E-07
  5.600E+00  2.38630E-03  2.42070E-19  8.64447E-03  0.00000E+00  1.0E-07
  5.700E+00  2.47222E-03  2.25953E-19  8.06891E-03  0.00000E+00  1.0E-07
  5.800E+00  2.55965E-03  2.11162E-19  7.54075E-03  0.00000E+00  1.0E-07
  5.900E+00  2.64859E-03  1.97569E-19  7.05530E-03  0.00000E+00  1.0E-07
  6.000E+00  2.73905E-03  1.85055E-19  6.60845E-03  0.00000E+00  1.0E-07
  6.100E+00  2.83103E-03  1.73524E-19  6.19664E-03  0.00000E+00  1.0E-07
  6.200E+00  2.92452E-03  1.62882E-19  5.81663E-03  0.00000E+00  1.0E-07
  6.300E+00  3.01952E-03  1.53049E-19  5.46548E-03  0.00000E+00  1.0E-07
  6.400E+00  3.11604E-03  1.43950E-19  5.14055E-03  0.00000E+00  1.0E-07
  6.500E+00  3.21407E-03  1.35522E-19  4.83959E-03  0.00000E+00  1.0E-07
  6.600E+00  3.31362E-03  1.27707E-19  4.56049E-03  0.00000E+00  1.0E-07
  6.700E+00  3.41468E-03  1.20451E-19  4.30137E-03  0.00000E+00  1.0E-07
  6.800E+00  3.51725E-03  1.13705E-19  4.06049E-03  0.00000E+00  1.0E-07
  6.900E+00  3.62133E-03  1.07429E-19  3.83636E-03  0.00000E+00  1.0E-07
  7.000E+00  3.72692E-03  1.01584E-19  3.62762E-03  0.00000E+00  1.0E-07
  7.100E+00  3.83403E-03  9.61335E-20  3.43299E-03  0.00000E+00  1.0E-07
  7.200E+00  3.94265E-03  9.10464E-20  3.25133E-03  0.00000E+00  1.0E-07
  7.300E+00  4.05278E-03  8.62940E-20  3.08162E-03  0.00000E+00  1.0E-07
  7.400E+00  4.16442E-03  8.18504E-20  2.92293E-03  0.00000E+00  1.0E-07
  7.500E+00  4.27757E-03  7.76916E-20  2.77442E-03  0.00000E+00  1.0E-07
  7.600E+00  4.39223E-03  7.37957E-20  2.63529E-03  0.00000E+00  1.0E-07
  7.700E+00  4.50840E-03  7.01429E-20  2.50485E-03  0.00000E+00  1.0E-07
  7.800E+00  4.62608E-03  6.67155E-20  2.38245E-03  0.00000E+00  1.0E-07
  7.900E+00  4.74527E-03  6.34968E-20  2.26751E-03  0.00000E+00  1.0E-07
  8.000E+00  4.86597E-03  6.04716E-20  2.15948E-03  0.00000E+00  1.0E-07
  8.100E+00  4.98817E-03  5.76260E-20  2.05786E-03  0.00000E+00  1.0E-07
  8.200E+00  5.11188E-03  5.49474E-20  1.96221E-03  0.00000E+00  1.0E-07
  8.300E+00  5.23711E-03  5.24242E-20  1.87210E-03  0.00000E+00  1.0E-07
  8.400E+00  5.36383E-03  5.00457E-20  1.78716E-03  0.00000E+00  1.0E-07
  8.500E+00  5.49207E-03  4.78016E-20  1.70703E-03  0.00000E+00  1.0E-07
  8.600E+00  5.62181E-03  4.56833E-20  1.63138E-03  0.00000E+00  1.0E-07
  8.700E+00  5.75306E-03  4.36823E-20  1.55992E-03  0.00000E+00  1.0E-07
  8.800E+00  5.88581E-03  4.17908E-20  1.49238E-03  0.00000E+00  1.0E-07
  8.900E+00  6.02007E-03  4.00016E-20  1.42848E-03  0.00000E+00  1.0E-07
  9.000E+00  6.15583E-03  3.83081E-20  1.36801E-03  0.00000E+00  1.0E-07
  9.100E+00  6.29310E-03  3.67043E-20  1.31073E-03  0.00000E+00  1.0E-07
  9.200E+00  6.43187E-03  3.51845E-20  1.25646E-03  0.00000E+00  1.0E-07
  9.300E+00  6.57214E-03  3.37434E-20  1.20500E-03  0.00000E+00  1.0E-07
  9.400E+00  6.71392E-03  3.23761E-20  1.15617E-03  0.00000E+00  1.0E-07
  9.500E+00  6.85720E-03  3.10782E-20  1.10982E-03  0.00000E+00  1.0E-07
  9.600E+00  7.00198E-03  2.98455E-20  1.06580E-03  0.00000E+00  1.0E-07
  9.700E+00  7.14827E-03  2.86740E-20  1.02397E-03  0.00000E+00  1.0E-07
  9.800E+00  7.29605E-03  2.75600E-20  9.84185E-04  0.00000E+00  1.0E-07
  9.900E+00  7.44534E-03  2.65003E-20  9.46342E-04  0.00000E+00  1.0E-07
  1.000E+01  7.59612E-03  2.54917E-20  9.10325E-04  0.00000E+00  1.0E-07
  1.025E+01  7.97965E-03  2.31747E-20  8.27584E-04  0.00000E+00  1.0E-07
  1.050E+01  8.37255E-03  2.11181E-20  7.54143E-04  0.00000E+00  1.0E-07
  1.075E+01  8.77480E-03  1.92875E-20  6.88768E-04  0.00000E+00  1.0E-07
  1.100E+01  9.18641E-03  1.76534E-20  6.30415E-04  0.00000E+00  1.0E-07
  1.125E+01  9.60736E-03  1.61910E-20  5.78192E-04  0.00000E+00  1.0E-07
  1.150E+01  1.00376E-02  1.48790E-20  5.31339E-04  0.00000E+00  1.0E-07
  1.175E+01  1.04773E-02  1.36990E-20  4.89201E-04  0.00000E+00  1.0E-07
  1.200E+01  1.09262E-02  1.26354E-20  4.51218E-04  0.00000E+00  1.0E-07
  1.225E+01  1.13844E-02  1.16745E-20  4.16904E-04  0.00000E+00  1.0E-07
  1.250E+01  1.18520E-02  1.08046E-20  3.85839E-04  0.00000E+00  1.0E-07
  1.275E+01  1.23288E-02  1.00155E-20  3.57659E-04  0.00000E+00  1.0E-07
  1.300E+01  1.28150E-02  9.29822E-21  3.32046E-04  0.00000E+00  1.0E-07
  1.325E+01  1.33104E-02  8.64504E-21  3.08720E-04  0.00000E+00  1.0E-07
  1.350E+01  1.38150E-02  8.04923E-21  2.87443E-04  0.00000E+00  1.0E-07
  1.375E+01  1.43290E-02  7.50472E-21  2.67998E-04  0.00000E+00  1.0E-07
  1.400E+01  1.48521E-02  7.00627E-21  2.50199E-04  0.00000E+00  1.0E-07
  1.425E+01  1.53845E-02  6.54929E-21  2.33879E-04  0.00000E+00  1.0E-07
  1.450E+01  1.59262E-02  6.12965E-21  2.18894E-04  0.00000E+00  1.0E-07
  1.475E+01  1.64770E-02  5.74371E-21  2.05112E-04  0.00000E+00  1.0E-07
  1.500E+01  1.70371E-02  5.38824E-21  1.92417E-04  0.00000E+00  1.0E-07
  1.525E+01  1.76063E-02  5.06039E-21  1.80710E-04  0.00000E+00  1.0E-07
