 #
 # Subroutine ELSEPA. Elastic scattering of electrons and positrons
 #                    by neutral atoms and positive ions
 #
 # Projectile: electron
 # Kinetic energy = 3.70000E+06 eV = 1.35973E+05 a.u.
 #
 # WARNING: High-energy factorization with free-atom DF screening.
 #          Absorption, polarization and exchange corrections are
 #          switched off.
 #          Phase shifts are calculated for the bare nucleus.
 #          Scattering amplitudes are not evaluated.
 #
 # Element: Es,  Z =  99,  atomic weight = 2.52000E+02 g/mol
 #
 # Nuclear model: Fermi distribution
 #                Average radius = 6.75850E-13 cm
 #                Skin thickness = 5.46000E-14 cm
 #
 # Number of electrons = 99
 #
 # Total elastic cross section = 1.16069E-17 cm**2 = 4.14491E-01 a0**2
 # 1st transport cross section = 9.39639E-22 cm**2 = 3.35551E-05 a0**2
 # 2nd transport cross section = 2.40494E-21 cm**2 = 8.58818E-05 a0**2
 #
 #
 # Differential cross section:                       MU=(1-COS(THETA))/2
 #
 #  THETA        MU          DCS          DCS        Sherman      error
 #  (deg)                 (cm**2/sr)   (a0**2/sr)    function
 #----------------------------------------------------------------------
  0.000E+00  0.00000E+00  1.69181E-12  6.04156E+04  0.00000E+00  1.0E-05
  1.000E-04  7.61557E-13  1.69180E-12  6.04153E+04  0.00000E+00  1.0E-05
  1.250E-04  1.18994E-12  1.69179E-12  6.04151E+04  0.00000E+00  1.0E-05
  1.500E-04  1.71346E-12  1.69179E-12  6.04148E+04  0.00000E+00  1.0E-05
  1.750E-04  2.33225E-12  1.69178E-12  6.04145E+04  0.00000E+00  1.0E-05
  2.000E-04  3.04617E-12  1.69177E-12  6.04141E+04  0.00000E+00  1.0E-05
  2.250E-04  3.85530E-12  1.69176E-12  6.04137E+04  0.00000E+00  1.0E-05
  2.500E-04  4.75964E-12  1.69174E-12  6.04133E+04  0.00000E+00  1.0E-05
  2.750E-04  5.75917E-12  1.69173E-12  6.04128E+04  0.00000E+00  1.0E-05
  3.000E-04  6.85391E-12  1.69172E-12  6.04122E+04  0.00000E+00  1.0E-05
  3.250E-04  8.04379E-12  1.69170E-12  6.04117E+04  0.00000E+00  1.0E-05
  3.500E-04  9.32893E-12  1.69168E-12  6.04110E+04  0.00000E+00  1.0E-05
  3.750E-04  1.07092E-11  1.69166E-12  6.04103E+04  0.00000E+00  1.0E-05
  4.000E-04  1.21847E-11  1.69164E-12  6.04096E+04  0.00000E+00  1.0E-05
  4.250E-04  1.37554E-11  1.69162E-12  6.04088E+04  0.00000E+00  1.0E-05
  4.500E-04  1.54213E-11  1.69160E-12  6.04080E+04  0.00000E+00  1.0E-05
  4.750E-04  1.71823E-11  1.69157E-12  6.04071E+04  0.00000E+00  1.0E-05
  5.000E-04  1.90386E-11  1.69155E-12  6.04062E+04  0.00000E+00  1.0E-05
  5.250E-04  2.09900E-11  1.69152E-12  6.04052E+04  0.00000E+00  1.0E-05
  5.500E-04  2.30367E-11  1.69149E-12  6.04042E+04  0.00000E+00  1.0E-05
  5.750E-04  2.51785E-11  1.69146E-12  6.04032E+04  0.00000E+00  1.0E-05
  6.000E-04  2.74156E-11  1.69143E-12  6.04021E+04  0.00000E+00  1.0E-05
  6.250E-04  2.97478E-11  1.69140E-12  6.04009E+04  0.00000E+00  1.0E-05
  6.500E-04  3.21752E-11  1.69136E-12  6.03997E+04  0.00000E+00  1.0E-05
  6.750E-04  3.46979E-11  1.69133E-12  6.03985E+04  0.00000E+00  1.0E-05
  7.000E-04  3.73157E-11  1.69129E-12  6.03972E+04  0.00000E+00  1.0E-05
  7.250E-04  4.00286E-11  1.69125E-12  6.03958E+04  0.00000E+00  1.0E-05
  7.500E-04  4.28368E-11  1.69122E-12  6.03944E+04  0.00000E+00  1.0E-05
  7.750E-04  4.57402E-11  1.69118E-12  6.03930E+04  0.00000E+00  1.0E-05
  8.000E-04  4.87388E-11  1.69113E-12  6.03915E+04  0.00000E+00  1.0E-05
  8.250E-04  5.18325E-11  1.69109E-12  6.03900E+04  0.00000E+00  1.0E-05
  8.500E-04  5.50215E-11  1.69105E-12  6.03884E+04  0.00000E+00  1.0E-05
  8.750E-04  5.83057E-11  1.69100E-12  6.03868E+04  0.00000E+00  1.0E-05
  9.000E-04  6.16850E-11  1.69095E-12  6.03851E+04  0.00000E+00  1.0E-05
  9.250E-04  6.51595E-11  1.69091E-12  6.03834E+04  0.00000E+00  1.0E-05
  9.500E-04  6.87293E-11  1.69086E-12  6.03816E+04  0.00000E+00  1.0E-05
  9.750E-04  7.23943E-11  1.69081E-12  6.03798E+04  0.00000E+00  1.0E-05
  1.000E-03  7.61544E-11  1.69075E-12  6.03779E+04  0.00000E+00  1.0E-05
  1.250E-03  1.18991E-10  1.69016E-12  6.03567E+04  0.00000E+00  1.0E-05
  1.500E-03  1.71347E-10  1.68943E-12  6.03307E+04  0.00000E+00  1.0E-05
  1.750E-03  2.33223E-10  1.68857E-12  6.03001E+04  0.00000E+00  1.0E-05
  2.000E-03  3.04617E-10  1.68759E-12  6.02648E+04  0.00000E+00  1.0E-05
  2.250E-03  3.85531E-10  1.68647E-12  6.02248E+04  0.00000E+00  1.0E-05
  2.500E-03  4.75965E-10  1.68522E-12  6.01802E+04  0.00000E+00  1.0E-05
  2.750E-03  5.75917E-10  1.68384E-12  6.01309E+04  0.00000E+00  1.0E-05
  3.000E-03  6.85389E-10  1.68233E-12  6.00770E+04  0.00000E+00  1.0E-05
  3.250E-03  8.04380E-10  1.68069E-12  6.00186E+04  0.00000E+00  1.0E-05
  3.500E-03  9.32891E-10  1.67893E-12  5.99556E+04  0.00000E+00  1.0E-05
  3.750E-03  1.07092E-09  1.67704E-12  5.98880E+04  0.00000E+00  1.0E-05
  4.000E-03  1.21847E-09  1.67502E-12  5.98160E+04  0.00000E+00  1.0E-05
  4.250E-03  1.37554E-09  1.67287E-12  5.97394E+04  0.00000E+00  1.0E-05
  4.500E-03  1.54213E-09  1.67061E-12  5.96584E+04  0.00000E+00  1.0E-05
  4.750E-03  1.71823E-09  1.66822E-12  5.95731E+04  0.00000E+00  1.0E-05
  5.000E-03  1.90386E-09  1.66570E-12  5.94833E+04  0.00000E+00  1.0E-05
  5.250E-03  2.09900E-09  1.66307E-12  5.93892E+04  0.00000E+00  1.0E-05
  5.500E-03  2.30367E-09  1.66031E-12  5.92908E+04  0.00000E+00  1.0E-05
  5.750E-03  2.51785E-09  1.65744E-12  5.91881E+04  0.00000E+00  1.0E-05
  6.000E-03  2.74156E-09  1.65444E-12  5.90813E+04  0.00000E+00  1.0E-05
  6.250E-03  2.97478E-09  1.65133E-12  5.89702E+04  0.00000E+00  1.0E-05
  6.500E-03  3.21752E-09  1.64811E-12  5.88550E+04  0.00000E+00  1.0E-05
  6.750E-03  3.46978E-09  1.64477E-12  5.87358E+04  0.00000E+00  1.0E-05
  7.000E-03  3.73156E-09  1.64132E-12  5.86125E+04  0.00000E+00  1.0E-05
  7.250E-03  4.00286E-09  1.63775E-12  5.84852E+04  0.00000E+00  1.0E-05
  7.500E-03  4.28368E-09  1.63408E-12  5.83540E+04  0.00000E+00  1.0E-05
  7.750E-03  4.57402E-09  1.63030E-12  5.82189E+04  0.00000E+00  1.0E-05
  8.000E-03  4.87388E-09  1.62641E-12  5.80800E+04  0.00000E+00  1.0E-05
  8.250E-03  5.18326E-09  1.62241E-12  5.79374E+04  0.00000E+00  1.0E-05
  8.500E-03  5.50215E-09  1.61831E-12  5.77910E+04  0.00000E+00  1.0E-05
  8.750E-03  5.83057E-09  1.61411E-12  5.76409E+04  0.00000E+00  1.0E-05
  9.000E-03  6.16850E-09  1.60981E-12  5.74873E+04  0.00000E+00  1.0E-05
  9.250E-03  6.51596E-09  1.60541E-12  5.73301E+04  0.00000E+00  1.0E-05
  9.500E-03  6.87293E-09  1.60091E-12  5.71694E+04  0.00000E+00  1.0E-05
  9.750E-03  7.23942E-09  1.59631E-12  5.70053E+04  0.00000E+00  1.0E-05
  1.000E-02  7.61544E-09  1.59162E-12  5.68378E+04  0.00000E+00  1.0E-05
  1.250E-02  1.18991E-08  1.53995E-12  5.49927E+04  0.00000E+00  1.0E-05
  1.500E-02  1.71347E-08  1.48098E-12  5.28866E+04  0.00000E+00  1.0E-05
  1.750E-02  2.33223E-08  1.41650E-12  5.05840E+04  0.00000E+00  1.0E-05
  2.000E-02  3.04617E-08  1.34839E-12  4.81520E+04  0.00000E+00  1.0E-05
  2.250E-02  3.85531E-08  1.27852E-12  4.56567E+04  0.00000E+00  1.0E-05
  2.500E-02  4.75965E-08  1.20838E-12  4.31520E+04  0.00000E+00  1.0E-05
  2.750E-02  5.75917E-08  1.13915E-12  4.06797E+04  0.00000E+00  1.0E-05
  3.000E-02  6.85389E-08  1.07182E-12  3.82755E+04  0.00000E+00  1.0E-05
  3.250E-02  8.04380E-08  1.00725E-12  3.59696E+04  0.00000E+00  1.0E-05
  3.500E-02  9.32891E-08  9.45970E-13  3.37812E+04  0.00000E+00  1.0E-05
  3.750E-02  1.07092E-07  8.88155E-13  3.17166E+04  0.00000E+00  1.0E-05
  4.000E-02  1.21847E-07  8.33967E-13  2.97815E+04  0.00000E+00  1.0E-05
  4.250E-02  1.37554E-07  7.83469E-13  2.79782E+04  0.00000E+00  1.0E-05
  4.500E-02  1.54213E-07  7.36615E-13  2.63050E+04  0.00000E+00  1.0E-05
  4.750E-02  1.71823E-07  6.93163E-13  2.47533E+04  0.00000E+00  1.0E-05
  5.000E-02  1.90386E-07  6.52945E-13  2.33171E+04  0.00000E+00  1.0E-05
  5.250E-02  2.09900E-07  6.15765E-13  2.19894E+04  0.00000E+00  1.0E-05
  5.500E-02  2.30367E-07  5.81361E-13  2.07608E+04  0.00000E+00  1.0E-05
  5.750E-02  2.51785E-07  5.49511E-13  1.96234E+04  0.00000E+00  1.0E-05
  6.000E-02  2.74156E-07  5.20013E-13  1.85700E+04  0.00000E+00  1.0E-05
  6.250E-02  2.97478E-07  4.92674E-13  1.75937E+04  0.00000E+00  1.0E-05
  6.500E-02  3.21752E-07  4.67209E-13  1.66843E+04  0.00000E+00  1.0E-05
  6.750E-02  3.46978E-07  4.43495E-13  1.58375E+04  0.00000E+00  1.0E-05
  7.000E-02  3.73156E-07  4.21400E-13  1.50485E+04  0.00000E+00  1.0E-05
  7.250E-02  4.00286E-07  4.00784E-13  1.43123E+04  0.00000E+00  1.0E-05
  7.500E-02  4.28368E-07  3.81430E-13  1.36211E+04  0.00000E+00  1.0E-05
  7.750E-02  4.57402E-07  3.63250E-13  1.29719E+04  0.00000E+00  1.0E-05
  8.000E-02  4.87388E-07  3.46195E-13  1.23629E+04  0.00000E+00  1.0E-05
  8.250E-02  5.18325E-07  3.30175E-13  1.17908E+04  0.00000E+00  1.0E-05
  8.500E-02  5.50215E-07  3.15047E-13  1.12505E+04  0.00000E+00  1.0E-05
  8.750E-02  5.83057E-07  3.00717E-13  1.07388E+04  0.00000E+00  1.0E-05
  9.000E-02  6.16850E-07  2.87201E-13  1.02562E+04  0.00000E+00  1.0E-05
  9.250E-02  6.51596E-07  2.74440E-13  9.80041E+03  0.00000E+00  1.0E-05
  9.500E-02  6.87293E-07  2.62349E-13  9.36865E+03  0.00000E+00  1.0E-05
  9.750E-02  7.23942E-07  2.50820E-13  8.95695E+03  0.00000E+00  1.0E-05
  1.000E-01  7.61543E-07  2.39905E-13  8.56717E+03  0.00000E+00  1.0E-05
  1.250E-01  1.18991E-06  1.56226E-13  5.57893E+03  0.00000E+00  1.0E-05
  1.500E-01  1.71347E-06  1.02831E-13  3.67218E+03  0.00000E+00  1.0E-05
  1.750E-01  2.33223E-06  7.08664E-14  2.53068E+03  0.00000E+00  1.0E-05
  2.000E-01  3.04617E-06  5.01967E-14  1.79256E+03  0.00000E+00  1.0E-05
  2.250E-01  3.85531E-06  3.62410E-14  1.29419E+03  0.00000E+00  1.0E-05
  2.500E-01  4.75964E-06  2.67867E-14  9.56569E+02  0.00000E+00  1.0E-05
  2.750E-01  5.75916E-06  2.02681E-14  7.23787E+02  0.00000E+00  1.0E-05
  3.000E-01  6.85388E-06  1.56414E-14  5.58564E+02  0.00000E+00  1.0E-05
  3.250E-01  8.04378E-06  1.22583E-14  4.37753E+02  0.00000E+00  1.0E-05
  3.500E-01  9.32888E-06  9.74174E-15  3.47884E+02  0.00000E+00  1.0E-05
  3.750E-01  1.07092E-05  7.85555E-15  2.80527E+02  0.00000E+00  1.0E-05
  4.000E-01  1.21846E-05  6.41597E-15  2.29118E+02  0.00000E+00  1.0E-05
  4.250E-01  1.37553E-05  5.29774E-15  1.89186E+02  0.00000E+00  1.0E-05
  4.500E-01  1.54212E-05  4.41364E-15  1.57614E+02  0.00000E+00  1.0E-05
  4.750E-01  1.71822E-05  3.71219E-15  1.32565E+02  0.00000E+00  1.0E-05
  5.000E-01  1.90385E-05  3.14603E-15  1.12347E+02  0.00000E+00  1.0E-05
  5.250E-01  2.09899E-05  2.69080E-15  9.60903E+01  0.00000E+00  1.0E-05
  5.500E-01  2.30365E-05  2.31323E-15  8.26070E+01  0.00000E+00  1.0E-05
  5.750E-01  2.51783E-05  2.00017E-15  7.14274E+01  0.00000E+00  1.0E-05
  6.000E-01  2.74153E-05  1.73857E-15  6.20856E+01  0.00000E+00  1.0E-05
  6.250E-01  2.97475E-05  1.51865E-15  5.42320E+01  0.00000E+00  1.0E-05
  6.500E-01  3.21749E-05  1.33241E-15  4.75813E+01  0.00000E+00  1.0E-05
  6.750E-01  3.46974E-05  1.17297E-15  4.18875E+01  0.00000E+00  1.0E-05
  7.000E-01  3.73152E-05  1.03672E-15  3.70219E+01  0.00000E+00  1.0E-05
  7.250E-01  4.00281E-05  9.20009E-16  3.28541E+01  0.00000E+00  1.0E-05
  7.500E-01  4.28362E-05  8.19238E-16  2.92555E+01  0.00000E+00  1.0E-05
  7.750E-01  4.57395E-05  7.31955E-16  2.61386E+01  0.00000E+00  1.0E-05
  8.000E-01  4.87380E-05  6.56127E-16  2.34307E+01  0.00000E+00  1.0E-05
  8.250E-01  5.18317E-05  5.89950E-16  2.10675E+01  0.00000E+00  1.0E-05
  8.500E-01  5.50205E-05  5.31858E-16  1.89930E+01  0.00000E+00  1.0E-05
  8.750E-01  5.83045E-05  4.80675E-16  1.71652E+01  0.00000E+00  1.0E-05
  9.000E-01  6.16838E-05  4.35559E-16  1.55541E+01  0.00000E+00  1.0E-05
  9.250E-01  6.51582E-05  3.95663E-16  1.41294E+01  0.00000E+00  1.0E-05
  9.500E-01  6.87277E-05  3.60250E-16  1.28648E+01  0.00000E+00  1.0E-05
  9.750E-01  7.23925E-05  3.28689E-16  1.17377E+01  0.00000E+00  1.0E-05
  1.000E+00  7.61524E-05  3.00563E-16  1.07333E+01  0.00000E+00  1.5E-05
  1.100E+00  9.21439E-05  2.14389E-16  7.65597E+00  0.00000E+00  1.1E-05
  1.200E+00  1.09658E-04  1.57174E-16  5.61277E+00  0.00000E+00  5.9E-06
  1.300E+00  1.28695E-04  1.17857E-16  4.20874E+00  0.00000E+00  1.2E-06
  1.400E+00  1.49255E-04  9.00262E-17  3.21489E+00  0.00000E+00  2.3E-06
  1.500E+00  1.71338E-04  7.00095E-17  2.50009E+00  0.00000E+00  4.2E-06
  1.600E+00  1.94942E-04  5.52852E-17  1.97427E+00  0.00000E+00  4.5E-06
  1.700E+00  2.20070E-04  4.42445E-17  1.58000E+00  0.00000E+00  3.6E-06
  1.800E+00  2.46720E-04  3.58220E-17  1.27923E+00  0.00000E+00  2.0E-06
  1.900E+00  2.74892E-04  2.93347E-17  1.04756E+00  0.00000E+00  3.3E-07
  2.000E+00  3.04586E-04  2.42659E-17  8.66552E-01  0.00000E+00  1.1E-06
  2.100E+00  3.35803E-04  2.02573E-17  7.23401E-01  0.00000E+00  1.9E-06
  2.200E+00  3.68542E-04  1.70419E-17  6.08579E-01  0.00000E+00  2.0E-06
  2.300E+00  4.02802E-04  1.44460E-17  5.15874E-01  0.00000E+00  1.7E-06
  2.400E+00  4.38585E-04  1.23297E-17  4.40300E-01  0.00000E+00  9.2E-07
  2.500E+00  4.75889E-04  1.05888E-17  3.78135E-01  0.00000E+00  1.0E-07
  2.600E+00  5.14715E-04  9.14316E-18  3.26508E-01  0.00000E+00  6.1E-07
  2.700E+00  5.55063E-04  7.93590E-18  2.83396E-01  0.00000E+00  1.0E-06
  2.800E+00  5.96931E-04  6.92194E-18  2.47187E-01  0.00000E+00  1.1E-06
  2.900E+00  6.40321E-04  6.06500E-18  2.16585E-01  0.00000E+00  9.0E-07
  3.000E+00  6.85233E-04  5.33557E-18  1.90537E-01  0.00000E+00  4.9E-07
  3.100E+00  7.31665E-04  4.71217E-18  1.68275E-01  0.00000E+00  1.0E-07
  3.200E+00  7.79618E-04  4.17723E-18  1.49172E-01  0.00000E+00  4.0E-07
  3.300E+00  8.29092E-04  3.71615E-18  1.32706E-01  0.00000E+00  6.4E-07
  3.400E+00  8.80086E-04  3.31662E-18  1.18439E-01  0.00000E+00  6.8E-07
  3.500E+00  9.32601E-04  2.96919E-18  1.06032E-01  0.00000E+00  5.5E-07
  3.600E+00  9.86636E-04  2.66617E-18  9.52107E-02  0.00000E+00  2.9E-07
  3.700E+00  1.04219E-03  2.40090E-18  8.57378E-02  0.00000E+00  1.0E-07
  3.800E+00  1.09927E-03  2.16784E-18  7.74151E-02  0.00000E+00  2.8E-07
  3.900E+00  1.15786E-03  1.96231E-18  7.00755E-02  0.00000E+00  4.3E-07
  4.000E+00  1.21797E-03  1.78067E-18  6.35891E-02  0.00000E+00  4.5E-07
  4.100E+00  1.27961E-03  1.61966E-18  5.78392E-02  0.00000E+00  3.6E-07
  4.200E+00  1.34276E-03  1.47652E-18  5.27276E-02  0.00000E+00  1.8E-07
  4.300E+00  1.40743E-03  1.34883E-18  4.81675E-02  0.00000E+00  1.0E-07
  4.400E+00  1.47362E-03  1.23472E-18  4.40926E-02  0.00000E+00  2.1E-07
  4.500E+00  1.54133E-03  1.13250E-18  4.04422E-02  0.00000E+00  3.1E-07
  4.600E+00  1.61056E-03  1.04070E-18  3.71639E-02  0.00000E+00  3.2E-07
  4.700E+00  1.68131E-03  9.58014E-19  3.42113E-02  0.00000E+00  2.4E-07
  4.800E+00  1.75357E-03  8.83429E-19  3.15478E-02  0.00000E+00  1.1E-07
  4.900E+00  1.82735E-03  8.16004E-19  2.91400E-02  0.00000E+00  1.0E-07
  5.000E+00  1.90265E-03  7.54928E-19  2.69590E-02  0.00000E+00  1.6E-07
  5.100E+00  1.97947E-03  6.99472E-19  2.49786E-02  0.00000E+00  2.3E-07
  5.200E+00  2.05780E-03  6.49036E-19  2.31775E-02  0.00000E+00  2.3E-07
  5.300E+00  2.13765E-03  6.03090E-19  2.15367E-02  0.00000E+00  1.7E-07
  5.400E+00  2.21902E-03  5.61161E-19  2.00394E-02  0.00000E+00  1.0E-07
  5.500E+00  2.30190E-03  5.22823E-19  1.86704E-02  0.00000E+00  1.0E-07
  5.600E+00  2.38630E-03  4.87710E-19  1.74164E-02  0.00000E+00  1.3E-07
  5.700E+00  2.47222E-03  4.55512E-19  1.62666E-02  0.00000E+00  1.8E-07
  5.800E+00  2.55965E-03  4.25940E-19  1.52106E-02  0.00000E+00  1.7E-07
  5.900E+00  2.64859E-03  3.98736E-19  1.42391E-02  0.00000E+00  1.3E-07
  6.000E+00  2.73905E-03  3.73671E-19  1.33440E-02  0.00000E+00  1.0E-07
  6.100E+00  2.83103E-03  3.50554E-19  1.25185E-02  0.00000E+00  1.0E-07
  6.200E+00  2.92452E-03  3.29205E-19  1.17561E-02  0.00000E+00  1.0E-07
  6.300E+00  3.01952E-03  3.09462E-19  1.10511E-02  0.00000E+00  1.4E-07
  6.400E+00  3.11604E-03  2.91175E-19  1.03981E-02  0.00000E+00  1.3E-07
  6.500E+00  3.21407E-03  2.74225E-19  9.79274E-03  0.00000E+00  1.0E-07
  6.600E+00  3.31362E-03  2.58495E-19  9.23101E-03  0.00000E+00  1.0E-07
  6.700E+00  3.41468E-03  2.43881E-19  8.70914E-03  0.00000E+00  1.0E-07
  6.800E+00  3.51725E-03  2.30283E-19  8.22356E-03  0.00000E+00  1.0E-07
  6.900E+00  3.62133E-03  2.17623E-19  7.77147E-03  0.00000E+00  1.1E-07
  7.000E+00  3.72692E-03  2.05825E-19  7.35013E-03  0.00000E+00  1.1E-07
  7.100E+00  3.83403E-03  1.94818E-19  6.95706E-03  0.00000E+00  1.0E-07
  7.200E+00  3.94265E-03  1.84536E-19  6.58990E-03  0.00000E+00  1.0E-07
  7.300E+00  4.05278E-03  1.74925E-19  6.24670E-03  0.00000E+00  1.0E-07
  7.400E+00  4.16442E-03  1.65934E-19  5.92562E-03  0.00000E+00  1.0E-07
  7.500E+00  4.27757E-03  1.57516E-19  5.62499E-03  0.00000E+00  1.0E-07
  7.600E+00  4.39223E-03  1.49624E-19  5.34319E-03  0.00000E+00  1.0E-07
  7.700E+00  4.50840E-03  1.42222E-19  5.07883E-03  0.00000E+00  1.0E-07
  7.800E+00  4.62608E-03  1.35273E-19  4.83069E-03  0.00000E+00  1.0E-07
  7.900E+00  4.74527E-03  1.28745E-19  4.59757E-03  0.00000E+00  1.0E-07
  8.000E+00  4.86597E-03  1.22607E-19  4.37837E-03  0.00000E+00  1.0E-07
  8.100E+00  4.98817E-03  1.16830E-19  4.17208E-03  0.00000E+00  1.0E-07
  8.200E+00  5.11188E-03  1.11391E-19  3.97786E-03  0.00000E+00  1.0E-07
  8.300E+00  5.23711E-03  1.06266E-19  3.79484E-03  0.00000E+00  1.0E-07
  8.400E+00  5.36383E-03  1.01434E-19  3.62227E-03  0.00000E+00  1.0E-07
  8.500E+00  5.49207E-03  9.68730E-20  3.45940E-03  0.00000E+00  1.0E-07
  8.600E+00  5.62181E-03  9.25667E-20  3.30562E-03  0.00000E+00  1.0E-07
  8.700E+00  5.75306E-03  8.84981E-20  3.16032E-03  0.00000E+00  1.0E-07
  8.800E+00  5.88581E-03  8.46516E-20  3.02296E-03  0.00000E+00  1.0E-07
  8.900E+00  6.02007E-03  8.10119E-20  2.89299E-03  0.00000E+00  1.0E-07
  9.000E+00  6.15583E-03  7.75666E-20  2.76995E-03  0.00000E+00  1.0E-07
  9.100E+00  6.29310E-03  7.43035E-20  2.65343E-03  0.00000E+00  1.0E-07
  9.200E+00  6.43187E-03  7.12111E-20  2.54299E-03  0.00000E+00  1.0E-07
  9.300E+00  6.57214E-03  6.82782E-20  2.43826E-03  0.00000E+00  1.0E-07
  9.400E+00  6.71392E-03  6.54954E-20  2.33888E-03  0.00000E+00  1.0E-07
  9.500E+00  6.85720E-03  6.28538E-20  2.24455E-03  0.00000E+00  1.0E-07
  9.600E+00  7.00198E-03  6.03448E-20  2.15495E-03  0.00000E+00  1.0E-07
  9.700E+00  7.14827E-03  5.79602E-20  2.06980E-03  0.00000E+00  1.0E-07
  9.800E+00  7.29605E-03  5.56928E-20  1.98883E-03  0.00000E+00  1.0E-07
  9.900E+00  7.44534E-03  5.35360E-20  1.91180E-03  0.00000E+00  1.0E-07
  1.000E+01  7.59612E-03  5.14832E-20  1.83850E-03  0.00000E+00  1.0E-07
  1.025E+01  7.97965E-03  4.67679E-20  1.67011E-03  0.00000E+00  1.0E-07
  1.050E+01  8.37255E-03  4.25834E-20  1.52068E-03  0.00000E+00  1.0E-07
  1.075E+01  8.77480E-03  3.88596E-20  1.38770E-03  0.00000E+00  1.0E-07
  1.100E+01  9.18641E-03  3.55370E-20  1.26905E-03  0.00000E+00  1.0E-07
  1.125E+01  9.60736E-03  3.25648E-20  1.16291E-03  0.00000E+00  1.0E-07
  1.150E+01  1.00376E-02  2.98995E-20  1.06773E-03  0.00000E+00  1.0E-07
  1.175E+01  1.04773E-02  2.75038E-20  9.82178E-04  0.00000E+00  1.0E-07
  1.200E+01  1.09262E-02  2.53456E-20  9.05107E-04  0.00000E+00  1.0E-07
  1.225E+01  1.13844E-02  2.33971E-20  8.35527E-04  0.00000E+00  1.0E-07
  1.250E+01  1.18520E-02  2.16344E-20  7.72578E-04  0.00000E+00  1.0E-07
  1.275E+01  1.23288E-02  2.00365E-20  7.15517E-04  0.00000E+00  1.0E-07
  1.300E+01  1.28150E-02  1.85853E-20  6.63691E-04  0.00000E+00  1.0E-07
  1.325E+01  1.33104E-02  1.72646E-20  6.16531E-04  0.00000E+00  1.0E-07
  1.350E+01  1.38150E-02  1.60611E-20  5.73551E-04  0.00000E+00  1.0E-07
  1.375E+01  1.43290E-02  1.49620E-20  5.34302E-04  0.00000E+00  1.0E-07
  1.400E+01  1.48521E-02  1.39568E-20  4.98405E-04  0.00000E+00  1.0E-07
  1.425E+01  1.53845E-02  1.30360E-20  4.65523E-04  0.00000E+00  1.0E-07
  1.450E+01  1.59262E-02  1.21912E-20  4.35356E-04  0.00000E+00  1.0E-07
  1.475E+01  1.64770E-02  1.14150E-20  4.07636E-04  0.00000E+00  1.0E-07
  1.500E+01  1.70371E-02  1.07006E-20  3.82127E-04  0.00000E+00  1.0E-07
  1.525E+01  1.76063E-02  1.00425E-20  3.58623E-04  0.00000E+00  1.0E-07
