 #
 # Subroutine ELSEPA. Elastic scattering of electrons and positrons
 #                    by neutral atoms and positive ions
 #
 # Projectile: electron
 # Kinetic energy = 3.70000E+06 eV = 1.35973E+05 a.u.
 #
 # WARNING: High-energy factorization with free-atom DF screening.
 #          Absorption, polarization and exchange corrections are
 #          switched off.
 #          Phase shifts are calculated for the bare nucleus.
 #          Scattering amplitudes are not evaluated.
 #
 # Element: Fm,  Z = 100,  atomic weight = 2.57000E+02 g/mol
 #
 # Nuclear model: Fermi distribution
 #                Average radius = 6.80291E-13 cm
 #                Skin thickness = 5.46000E-14 cm
 #
 # Number of electrons =100
 #
 # Total elastic cross section = 1.15772E-17 cm**2 = 4.13428E-01 a0**2
 # 1st transport cross section = 9.59783E-22 cm**2 = 3.42745E-05 a0**2
 # 2nd transport cross section = 2.45079E-21 cm**2 = 8.75193E-05 a0**2
 #
 #
 # Differential cross section:                       MU=(1-COS(THETA))/2
 #
 #  THETA        MU          DCS          DCS        Sherman      error
 #  (deg)                 (cm**2/sr)   (a0**2/sr)    function
 #----------------------------------------------------------------------
  0.000E+00  0.00000E+00  1.62520E-12  5.80370E+04  0.00000E+00  1.0E-05
  1.000E-04  7.61557E-13  1.62519E-12  5.80367E+04  0.00000E+00  1.0E-05
  1.250E-04  1.18994E-12  1.62519E-12  5.80365E+04  0.00000E+00  1.0E-05
  1.500E-04  1.71346E-12  1.62518E-12  5.80362E+04  0.00000E+00  1.0E-05
  1.750E-04  2.33225E-12  1.62517E-12  5.80359E+04  0.00000E+00  1.0E-05
  2.000E-04  3.04617E-12  1.62516E-12  5.80356E+04  0.00000E+00  1.0E-05
  2.250E-04  3.85530E-12  1.62515E-12  5.80352E+04  0.00000E+00  1.0E-05
  2.500E-04  4.75964E-12  1.62514E-12  5.80348E+04  0.00000E+00  1.0E-05
  2.750E-04  5.75917E-12  1.62513E-12  5.80344E+04  0.00000E+00  1.0E-05
  3.000E-04  6.85391E-12  1.62511E-12  5.80338E+04  0.00000E+00  1.0E-05
  3.250E-04  8.04379E-12  1.62510E-12  5.80333E+04  0.00000E+00  1.0E-05
  3.500E-04  9.32893E-12  1.62508E-12  5.80327E+04  0.00000E+00  1.0E-05
  3.750E-04  1.07092E-11  1.62506E-12  5.80321E+04  0.00000E+00  1.0E-05
  4.000E-04  1.21847E-11  1.62504E-12  5.80314E+04  0.00000E+00  1.0E-05
  4.250E-04  1.37554E-11  1.62502E-12  5.80307E+04  0.00000E+00  1.0E-05
  4.500E-04  1.54213E-11  1.62500E-12  5.80299E+04  0.00000E+00  1.0E-05
  4.750E-04  1.71823E-11  1.62498E-12  5.80291E+04  0.00000E+00  1.0E-05
  5.000E-04  1.90386E-11  1.62496E-12  5.80282E+04  0.00000E+00  1.0E-05
  5.250E-04  2.09900E-11  1.62493E-12  5.80273E+04  0.00000E+00  1.0E-05
  5.500E-04  2.30367E-11  1.62490E-12  5.80264E+04  0.00000E+00  1.0E-05
  5.750E-04  2.51785E-11  1.62488E-12  5.80254E+04  0.00000E+00  1.0E-05
  6.000E-04  2.74156E-11  1.62485E-12  5.80243E+04  0.00000E+00  1.0E-05
  6.250E-04  2.97478E-11  1.62482E-12  5.80232E+04  0.00000E+00  1.0E-05
  6.500E-04  3.21752E-11  1.62478E-12  5.80221E+04  0.00000E+00  1.0E-05
  6.750E-04  3.46979E-11  1.62475E-12  5.80209E+04  0.00000E+00  1.0E-05
  7.000E-04  3.73157E-11  1.62472E-12  5.80197E+04  0.00000E+00  1.0E-05
  7.250E-04  4.00286E-11  1.62468E-12  5.80185E+04  0.00000E+00  1.0E-05
  7.500E-04  4.28368E-11  1.62465E-12  5.80172E+04  0.00000E+00  1.0E-05
  7.750E-04  4.57402E-11  1.62461E-12  5.80158E+04  0.00000E+00  1.0E-05
  8.000E-04  4.87388E-11  1.62457E-12  5.80144E+04  0.00000E+00  1.0E-05
  8.250E-04  5.18325E-11  1.62453E-12  5.80130E+04  0.00000E+00  1.0E-05
  8.500E-04  5.50215E-11  1.62449E-12  5.80115E+04  0.00000E+00  1.0E-05
  8.750E-04  5.83057E-11  1.62445E-12  5.80100E+04  0.00000E+00  1.0E-05
  9.000E-04  6.16850E-11  1.62440E-12  5.80084E+04  0.00000E+00  1.0E-05
  9.250E-04  6.51595E-11  1.62436E-12  5.80068E+04  0.00000E+00  1.0E-05
  9.500E-04  6.87293E-11  1.62431E-12  5.80052E+04  0.00000E+00  1.0E-05
  9.750E-04  7.23943E-11  1.62426E-12  5.80035E+04  0.00000E+00  1.0E-05
  1.000E-03  7.61544E-11  1.62421E-12  5.80017E+04  0.00000E+00  1.0E-05
  1.250E-03  1.18991E-10  1.62366E-12  5.79819E+04  0.00000E+00  1.0E-05
  1.500E-03  1.71347E-10  1.62298E-12  5.79576E+04  0.00000E+00  1.0E-05
  1.750E-03  2.33223E-10  1.62218E-12  5.79290E+04  0.00000E+00  1.0E-05
  2.000E-03  3.04617E-10  1.62125E-12  5.78960E+04  0.00000E+00  1.0E-05
  2.250E-03  3.85531E-10  1.62021E-12  5.78586E+04  0.00000E+00  1.0E-05
  2.500E-03  4.75965E-10  1.61904E-12  5.78169E+04  0.00000E+00  1.0E-05
  2.750E-03  5.75917E-10  1.61775E-12  5.77708E+04  0.00000E+00  1.0E-05
  3.000E-03  6.85389E-10  1.61634E-12  5.77204E+04  0.00000E+00  1.0E-05
  3.250E-03  8.04380E-10  1.61481E-12  5.76658E+04  0.00000E+00  1.0E-05
  3.500E-03  9.32891E-10  1.61316E-12  5.76068E+04  0.00000E+00  1.0E-05
  3.750E-03  1.07092E-09  1.61139E-12  5.75436E+04  0.00000E+00  1.0E-05
  4.000E-03  1.21847E-09  1.60950E-12  5.74762E+04  0.00000E+00  1.0E-05
  4.250E-03  1.37554E-09  1.60749E-12  5.74047E+04  0.00000E+00  1.0E-05
  4.500E-03  1.54213E-09  1.60537E-12  5.73289E+04  0.00000E+00  1.0E-05
  4.750E-03  1.71823E-09  1.60314E-12  5.72490E+04  0.00000E+00  1.0E-05
  5.000E-03  1.90386E-09  1.60079E-12  5.71651E+04  0.00000E+00  1.0E-05
  5.250E-03  2.09900E-09  1.59832E-12  5.70770E+04  0.00000E+00  1.0E-05
  5.500E-03  2.30367E-09  1.59574E-12  5.69850E+04  0.00000E+00  1.0E-05
  5.750E-03  2.51785E-09  1.59305E-12  5.68889E+04  0.00000E+00  1.0E-05
  6.000E-03  2.74156E-09  1.59025E-12  5.67889E+04  0.00000E+00  1.0E-05
  6.250E-03  2.97478E-09  1.58734E-12  5.66850E+04  0.00000E+00  1.0E-05
  6.500E-03  3.21752E-09  1.58432E-12  5.65772E+04  0.00000E+00  1.0E-05
  6.750E-03  3.46978E-09  1.58120E-12  5.64656E+04  0.00000E+00  1.0E-05
  7.000E-03  3.73156E-09  1.57797E-12  5.63502E+04  0.00000E+00  1.0E-05
  7.250E-03  4.00286E-09  1.57463E-12  5.62311E+04  0.00000E+00  1.0E-05
  7.500E-03  4.28368E-09  1.57119E-12  5.61083E+04  0.00000E+00  1.0E-05
  7.750E-03  4.57402E-09  1.56765E-12  5.59818E+04  0.00000E+00  1.0E-05
  8.000E-03  4.87388E-09  1.56401E-12  5.58518E+04  0.00000E+00  1.0E-05
  8.250E-03  5.18326E-09  1.56027E-12  5.57182E+04  0.00000E+00  1.0E-05
  8.500E-03  5.50215E-09  1.55643E-12  5.55811E+04  0.00000E+00  1.0E-05
  8.750E-03  5.83057E-09  1.55249E-12  5.54406E+04  0.00000E+00  1.0E-05
  9.000E-03  6.16850E-09  1.54846E-12  5.52966E+04  0.00000E+00  1.0E-05
  9.250E-03  6.51596E-09  1.54434E-12  5.51494E+04  0.00000E+00  1.0E-05
  9.500E-03  6.87293E-09  1.54012E-12  5.49989E+04  0.00000E+00  1.0E-05
  9.750E-03  7.23942E-09  1.53582E-12  5.48451E+04  0.00000E+00  1.0E-05
  1.000E-02  7.61544E-09  1.53143E-12  5.46882E+04  0.00000E+00  1.0E-05
  1.250E-02  1.18991E-08  1.48298E-12  5.29581E+04  0.00000E+00  1.0E-05
  1.500E-02  1.71347E-08  1.42759E-12  5.09803E+04  0.00000E+00  1.0E-05
  1.750E-02  2.33223E-08  1.36696E-12  4.88150E+04  0.00000E+00  1.0E-05
  2.000E-02  3.04617E-08  1.30282E-12  4.65245E+04  0.00000E+00  1.0E-05
  2.250E-02  3.85531E-08  1.23688E-12  4.41698E+04  0.00000E+00  1.0E-05
  2.500E-02  4.75965E-08  1.17056E-12  4.18014E+04  0.00000E+00  1.0E-05
  2.750E-02  5.75917E-08  1.10497E-12  3.94593E+04  0.00000E+00  1.0E-05
  3.000E-02  6.85389E-08  1.04107E-12  3.71774E+04  0.00000E+00  1.0E-05
  3.250E-02  8.04380E-08  9.79657E-13  3.49842E+04  0.00000E+00  1.0E-05
  3.500E-02  9.32891E-08  9.21243E-13  3.28982E+04  0.00000E+00  1.0E-05
  3.750E-02  1.07092E-07  8.66034E-13  3.09266E+04  0.00000E+00  1.0E-05
  4.000E-02  1.21847E-07  8.14198E-13  2.90756E+04  0.00000E+00  1.0E-05
  4.250E-02  1.37554E-07  7.65805E-13  2.73474E+04  0.00000E+00  1.0E-05
  4.500E-02  1.54213E-07  7.20818E-13  2.57409E+04  0.00000E+00  1.0E-05
  4.750E-02  1.71823E-07  6.79036E-13  2.42488E+04  0.00000E+00  1.0E-05
  5.000E-02  1.90386E-07  6.40310E-13  2.28659E+04  0.00000E+00  1.0E-05
  5.250E-02  2.09900E-07  6.04462E-13  2.15857E+04  0.00000E+00  1.0E-05
  5.500E-02  2.30367E-07  5.71243E-13  2.03994E+04  0.00000E+00  1.0E-05
  5.750E-02  2.51785E-07  5.40455E-13  1.93000E+04  0.00000E+00  1.0E-05
  6.000E-02  2.74156E-07  5.11913E-13  1.82808E+04  0.00000E+00  1.0E-05
  6.250E-02  2.97478E-07  4.85435E-13  1.73352E+04  0.00000E+00  1.0E-05
  6.500E-02  3.21752E-07  4.60747E-13  1.64536E+04  0.00000E+00  1.0E-05
  6.750E-02  3.46978E-07  4.37737E-13  1.56319E+04  0.00000E+00  1.0E-05
  7.000E-02  3.73156E-07  4.16281E-13  1.48657E+04  0.00000E+00  1.0E-05
  7.250E-02  4.00286E-07  3.96248E-13  1.41503E+04  0.00000E+00  1.0E-05
  7.500E-02  4.28368E-07  3.77425E-13  1.34781E+04  0.00000E+00  1.0E-05
  7.750E-02  4.57402E-07  3.59730E-13  1.28462E+04  0.00000E+00  1.0E-05
  8.000E-02  4.87388E-07  3.43120E-13  1.22530E+04  0.00000E+00  1.0E-05
  8.250E-02  5.18325E-07  3.27506E-13  1.16955E+04  0.00000E+00  1.0E-05
  8.500E-02  5.50215E-07  3.12751E-13  1.11685E+04  0.00000E+00  1.0E-05
  8.750E-02  5.83057E-07  2.98763E-13  1.06690E+04  0.00000E+00  1.0E-05
  9.000E-02  6.16850E-07  2.85560E-13  1.01975E+04  0.00000E+00  1.0E-05
  9.250E-02  6.51596E-07  2.73084E-13  9.75202E+03  0.00000E+00  1.0E-05
  9.500E-02  6.87293E-07  2.61256E-13  9.32961E+03  0.00000E+00  1.0E-05
  9.750E-02  7.23942E-07  2.49966E-13  8.92645E+03  0.00000E+00  1.0E-05
  1.000E-01  7.61543E-07  2.39269E-13  8.54445E+03  0.00000E+00  1.0E-05
  1.250E-01  1.18991E-06  1.56889E-13  5.60261E+03  0.00000E+00  1.0E-05
  1.500E-01  1.71347E-06  1.03776E-13  3.70590E+03  0.00000E+00  1.0E-05
  1.750E-01  2.33223E-06  7.17677E-14  2.56287E+03  0.00000E+00  1.0E-05
  2.000E-01  3.04617E-06  5.09415E-14  1.81915E+03  0.00000E+00  1.0E-05
  2.250E-01  3.85531E-06  3.68061E-14  1.31437E+03  0.00000E+00  1.0E-05
  2.500E-01  4.75964E-06  2.72063E-14  9.71555E+02  0.00000E+00  1.0E-05
  2.750E-01  5.75916E-06  2.05804E-14  7.34939E+02  0.00000E+00  1.0E-05
  3.000E-01  6.85388E-06  1.58753E-14  5.66918E+02  0.00000E+00  1.0E-05
  3.250E-01  8.04378E-06  1.24352E-14  4.44068E+02  0.00000E+00  1.0E-05
  3.500E-01  9.32888E-06  9.87721E-15  3.52721E+02  0.00000E+00  1.0E-05
  3.750E-01  1.07092E-05  7.96096E-15  2.84291E+02  0.00000E+00  1.0E-05
  4.000E-01  1.21846E-05  6.49919E-15  2.32090E+02  0.00000E+00  1.0E-05
  4.250E-01  1.37553E-05  5.36439E-15  1.91566E+02  0.00000E+00  1.0E-05
  4.500E-01  1.54212E-05  4.46781E-15  1.59549E+02  0.00000E+00  1.0E-05
  4.750E-01  1.71822E-05  3.75685E-15  1.34159E+02  0.00000E+00  1.0E-05
  5.000E-01  1.90385E-05  3.18327E-15  1.13677E+02  0.00000E+00  1.0E-05
  5.250E-01  2.09899E-05  2.72236E-15  9.72171E+01  0.00000E+00  1.0E-05
  5.500E-01  2.30365E-05  2.34030E-15  8.35737E+01  0.00000E+00  1.0E-05
  5.750E-01  2.51783E-05  2.02363E-15  7.22653E+01  0.00000E+00  1.0E-05
  6.000E-01  2.74153E-05  1.75910E-15  6.28186E+01  0.00000E+00  1.0E-05
  6.250E-01  2.97475E-05  1.53676E-15  5.48787E+01  0.00000E+00  1.0E-05
  6.500E-01  3.21749E-05  1.34853E-15  4.81568E+01  0.00000E+00  1.0E-05
  6.750E-01  3.46974E-05  1.18736E-15  4.24016E+01  0.00000E+00  1.0E-05
  7.000E-01  3.73152E-05  1.04964E-15  3.74831E+01  0.00000E+00  1.0E-05
  7.250E-01  4.00281E-05  9.31646E-16  3.32697E+01  0.00000E+00  1.0E-05
  7.500E-01  4.28362E-05  8.29756E-16  2.96311E+01  0.00000E+00  1.0E-05
  7.750E-01  4.57395E-05  7.41488E-16  2.64790E+01  0.00000E+00  1.0E-05
  8.000E-01  4.87380E-05  6.64789E-16  2.37400E+01  0.00000E+00  1.0E-05
  8.250E-01  5.18317E-05  5.97840E-16  2.13493E+01  0.00000E+00  1.0E-05
  8.500E-01  5.50205E-05  5.39059E-16  1.92501E+01  0.00000E+00  1.0E-05
  8.750E-01  5.83045E-05  4.87255E-16  1.74002E+01  0.00000E+00  1.0E-05
  9.000E-01  6.16838E-05  4.41585E-16  1.57693E+01  0.00000E+00  1.0E-05
  9.250E-01  6.51582E-05  4.01191E-16  1.43268E+01  0.00000E+00  1.0E-05
  9.500E-01  6.87277E-05  3.65329E-16  1.30461E+01  0.00000E+00  1.0E-05
  9.750E-01  7.23925E-05  3.33363E-16  1.19046E+01  0.00000E+00  1.0E-05
  1.000E+00  7.61524E-05  3.04872E-16  1.08872E+01  0.00000E+00  1.4E-05
  1.100E+00  9.21439E-05  2.17556E-16  7.76907E+00  0.00000E+00  1.0E-05
  1.200E+00  1.09658E-04  1.59559E-16  5.69796E+00  0.00000E+00  5.7E-06
  1.300E+00  1.28695E-04  1.19689E-16  4.27417E+00  0.00000E+00  1.1E-06
  1.400E+00  1.49255E-04  9.14521E-17  3.26581E+00  0.00000E+00  2.2E-06
  1.500E+00  1.71338E-04  7.11335E-17  2.54022E+00  0.00000E+00  4.0E-06
  1.600E+00  1.94942E-04  5.61812E-17  2.00627E+00  0.00000E+00  4.3E-06
  1.700E+00  2.20070E-04  4.49655E-17  1.60575E+00  0.00000E+00  3.4E-06
  1.800E+00  2.46720E-04  3.64070E-17  1.30012E+00  0.00000E+00  1.9E-06
  1.900E+00  2.74892E-04  2.98147E-17  1.06470E+00  0.00000E+00  3.1E-07
  2.000E+00  3.04586E-04  2.46637E-17  8.80757E-01  0.00000E+00  1.0E-06
  2.100E+00  3.35803E-04  2.05902E-17  7.35289E-01  0.00000E+00  1.8E-06
  2.200E+00  3.68542E-04  1.73232E-17  6.18622E-01  0.00000E+00  2.0E-06
  2.300E+00  4.02802E-04  1.46857E-17  5.24436E-01  0.00000E+00  1.6E-06
  2.400E+00  4.38585E-04  1.25357E-17  4.47656E-01  0.00000E+00  8.8E-07
  2.500E+00  4.75889E-04  1.07671E-17  3.84500E-01  0.00000E+00  1.0E-07
  2.600E+00  5.14715E-04  9.29840E-18  3.32052E-01  0.00000E+00  5.8E-07
  2.700E+00  5.55063E-04  8.07183E-18  2.88250E-01  0.00000E+00  9.9E-07
  2.800E+00  5.96931E-04  7.04154E-18  2.51458E-01  0.00000E+00  1.1E-06
  2.900E+00  6.40321E-04  6.17070E-18  2.20360E-01  0.00000E+00  8.6E-07
  3.000E+00  6.85233E-04  5.42931E-18  1.93884E-01  0.00000E+00  4.7E-07
  3.100E+00  7.31665E-04  4.79558E-18  1.71253E-01  0.00000E+00  1.0E-07
  3.200E+00  7.79618E-04  4.25168E-18  1.51830E-01  0.00000E+00  3.8E-07
  3.300E+00  8.29092E-04  3.78280E-18  1.35086E-01  0.00000E+00  6.1E-07
  3.400E+00  8.80086E-04  3.37643E-18  1.20575E-01  0.00000E+00  6.6E-07
  3.500E+00  9.32601E-04  3.02298E-18  1.07953E-01  0.00000E+00  5.2E-07
  3.600E+00  9.86636E-04  2.71468E-18  9.69429E-02  0.00000E+00  2.7E-07
  3.700E+00  1.04219E-03  2.44474E-18  8.73033E-02  0.00000E+00  1.0E-07
  3.800E+00  1.09927E-03  2.20755E-18  7.88330E-02  0.00000E+00  2.7E-07
  3.900E+00  1.15786E-03  1.99834E-18  7.13622E-02  0.00000E+00  4.1E-07
  4.000E+00  1.21797E-03  1.81344E-18  6.47591E-02  0.00000E+00  4.3E-07
  4.100E+00  1.27961E-03  1.64952E-18  5.89054E-02  0.00000E+00  3.4E-07
  4.200E+00  1.34276E-03  1.50378E-18  5.37011E-02  0.00000E+00  1.7E-07
  4.300E+00  1.40743E-03  1.37376E-18  4.90579E-02  0.00000E+00  1.0E-07
  4.400E+00  1.47362E-03  1.25757E-18  4.49086E-02  0.00000E+00  2.0E-07
  4.500E+00  1.54133E-03  1.15347E-18  4.11913E-02  0.00000E+00  2.9E-07
  4.600E+00  1.61056E-03  1.05999E-18  3.78529E-02  0.00000E+00  3.0E-07
  4.700E+00  1.68131E-03  9.75788E-19  3.48460E-02  0.00000E+00  2.3E-07
  4.800E+00  1.75357E-03  8.99830E-19  3.21335E-02  0.00000E+00  1.1E-07
  4.900E+00  1.82735E-03  8.31164E-19  2.96814E-02  0.00000E+00  1.0E-07
  5.000E+00  1.90265E-03  7.68962E-19  2.74601E-02  0.00000E+00  1.5E-07
  5.100E+00  1.97947E-03  7.12484E-19  2.54433E-02  0.00000E+00  2.2E-07
  5.200E+00  2.05780E-03  6.61117E-19  2.36089E-02  0.00000E+00  2.2E-07
  5.300E+00  2.13765E-03  6.14324E-19  2.19379E-02  0.00000E+00  1.7E-07
  5.400E+00  2.21902E-03  5.71621E-19  2.04130E-02  0.00000E+00  1.0E-07
  5.500E+00  2.30190E-03  5.32576E-19  1.90186E-02  0.00000E+00  1.0E-07
  5.600E+00  2.38630E-03  4.96814E-19  1.77416E-02  0.00000E+00  1.2E-07
  5.700E+00  2.47222E-03  4.64021E-19  1.65705E-02  0.00000E+00  1.7E-07
  5.800E+00  2.55965E-03  4.33903E-19  1.54950E-02  0.00000E+00  1.7E-07
  5.900E+00  2.64859E-03  4.06197E-19  1.45056E-02  0.00000E+00  1.2E-07
  6.000E+00  2.73905E-03  3.80669E-19  1.35939E-02  0.00000E+00  1.0E-07
  6.100E+00  2.83103E-03  3.57124E-19  1.27531E-02  0.00000E+00  1.0E-07
  6.200E+00  2.92452E-03  3.35379E-19  1.19766E-02  0.00000E+00  1.0E-07
  6.300E+00  3.01952E-03  3.15271E-19  1.12585E-02  0.00000E+00  1.3E-07
  6.400E+00  3.11604E-03  2.96645E-19  1.05934E-02  0.00000E+00  1.3E-07
  6.500E+00  3.21407E-03  2.79381E-19  9.97686E-03  0.00000E+00  1.0E-07
  6.600E+00  3.31362E-03  2.63359E-19  9.40470E-03  0.00000E+00  1.0E-07
  6.700E+00  3.41468E-03  2.48473E-19  8.87314E-03  0.00000E+00  1.0E-07
  6.800E+00  3.51725E-03  2.34623E-19  8.37854E-03  0.00000E+00  1.0E-07
  6.900E+00  3.62133E-03  2.21727E-19  7.91803E-03  0.00000E+00  1.1E-07
  7.000E+00  3.72692E-03  2.09709E-19  7.48885E-03  0.00000E+00  1.0E-07
  7.100E+00  3.83403E-03  1.98497E-19  7.08845E-03  0.00000E+00  1.0E-07
  7.200E+00  3.94265E-03  1.88023E-19  6.71444E-03  0.00000E+00  1.0E-07
  7.300E+00  4.05278E-03  1.78233E-19  6.36482E-03  0.00000E+00  1.0E-07
  7.400E+00  4.16442E-03  1.69074E-19  6.03774E-03  0.00000E+00  1.0E-07
  7.500E+00  4.27757E-03  1.60497E-19  5.73147E-03  0.00000E+00  1.0E-07
  7.600E+00  4.39223E-03  1.52458E-19  5.44438E-03  0.00000E+00  1.0E-07
  7.700E+00  4.50840E-03  1.44917E-19  5.17507E-03  0.00000E+00  1.0E-07
  7.800E+00  4.62608E-03  1.37837E-19  4.92225E-03  0.00000E+00  1.0E-07
  7.900E+00  4.74527E-03  1.31186E-19  4.68475E-03  0.00000E+00  1.0E-07
  8.000E+00  4.86597E-03  1.24932E-19  4.46142E-03  0.00000E+00  1.0E-07
  8.100E+00  4.98817E-03  1.19047E-19  4.25124E-03  0.00000E+00  1.0E-07
  8.200E+00  5.11188E-03  1.13505E-19  4.05334E-03  0.00000E+00  1.0E-07
  8.300E+00  5.23711E-03  1.08283E-19  3.86687E-03  0.00000E+00  1.0E-07
  8.400E+00  5.36383E-03  1.03359E-19  3.69103E-03  0.00000E+00  1.0E-07
  8.500E+00  5.49207E-03  9.87119E-20  3.52507E-03  0.00000E+00  1.0E-07
  8.600E+00  5.62181E-03  9.43239E-20  3.36837E-03  0.00000E+00  1.0E-07
  8.700E+00  5.75306E-03  9.01781E-20  3.22032E-03  0.00000E+00  1.0E-07
  8.800E+00  5.88581E-03  8.62584E-20  3.08034E-03  0.00000E+00  1.0E-07
  8.900E+00  6.02007E-03  8.25494E-20  2.94789E-03  0.00000E+00  1.0E-07
  9.000E+00  6.15583E-03  7.90385E-20  2.82252E-03  0.00000E+00  1.0E-07
  9.100E+00  6.29310E-03  7.57132E-20  2.70377E-03  0.00000E+00  1.0E-07
  9.200E+00  6.43187E-03  7.25617E-20  2.59123E-03  0.00000E+00  1.0E-07
  9.300E+00  6.57214E-03  6.95727E-20  2.48449E-03  0.00000E+00  1.0E-07
  9.400E+00  6.71392E-03  6.67368E-20  2.38321E-03  0.00000E+00  1.0E-07
  9.500E+00  6.85720E-03  6.40446E-20  2.28708E-03  0.00000E+00  1.0E-07
  9.600E+00  7.00198E-03  6.14876E-20  2.19576E-03  0.00000E+00  1.0E-07
  9.700E+00  7.14827E-03  5.90573E-20  2.10897E-03  0.00000E+00  1.0E-07
  9.800E+00  7.29605E-03  5.67464E-20  2.02645E-03  0.00000E+00  1.0E-07
  9.900E+00  7.44534E-03  5.45481E-20  1.94795E-03  0.00000E+00  1.0E-07
  1.000E+01  7.59612E-03  5.24559E-20  1.87323E-03  0.00000E+00  1.0E-07
  1.025E+01  7.97965E-03  4.76499E-20  1.70161E-03  0.00000E+00  1.0E-07
  1.050E+01  8.37255E-03  4.33849E-20  1.54930E-03  0.00000E+00  1.0E-07
  1.075E+01  8.77480E-03  3.95894E-20  1.41376E-03  0.00000E+00  1.0E-07
  1.100E+01  9.18641E-03  3.62027E-20  1.29282E-03  0.00000E+00  1.0E-07
  1.125E+01  9.60736E-03  3.31732E-20  1.18464E-03  0.00000E+00  1.0E-07
  1.150E+01  1.00376E-02  3.04564E-20  1.08762E-03  0.00000E+00  1.0E-07
  1.175E+01  1.04773E-02  2.80145E-20  1.00042E-03  0.00000E+00  1.0E-07
  1.200E+01  1.09262E-02  2.58147E-20  9.21858E-04  0.00000E+00  1.0E-07
  1.225E+01  1.13844E-02  2.38286E-20  8.50936E-04  0.00000E+00  1.0E-07
  1.250E+01  1.18520E-02  2.20319E-20  7.86775E-04  0.00000E+00  1.0E-07
  1.275E+01  1.23288E-02  2.04033E-20  7.28615E-04  0.00000E+00  1.0E-07
  1.300E+01  1.28150E-02  1.89241E-20  6.75793E-04  0.00000E+00  1.0E-07
  1.325E+01  1.33104E-02  1.75781E-20  6.27726E-04  0.00000E+00  1.0E-07
  1.350E+01  1.38150E-02  1.63515E-20  5.83922E-04  0.00000E+00  1.0E-07
  1.375E+01  1.43290E-02  1.52314E-20  5.43922E-04  0.00000E+00  1.0E-07
  1.400E+01  1.48521E-02  1.42069E-20  5.07339E-04  0.00000E+00  1.0E-07
  1.425E+01  1.53845E-02  1.32686E-20  4.73829E-04  0.00000E+00  1.0E-07
  1.450E+01  1.59262E-02  1.24077E-20  4.43088E-04  0.00000E+00  1.0E-07
  1.475E+01  1.64770E-02  1.16167E-20  4.14841E-04  0.00000E+00  1.0E-07
  1.500E+01  1.70371E-02  1.08889E-20  3.88849E-04  0.00000E+00  1.0E-07
  1.525E+01  1.76063E-02  1.02183E-20  3.64900E-04  0.00000E+00  1.0E-07
