 #
 # Subroutine ELSEPA. Elastic scattering of electrons and positrons
 #                    by neutral atoms and positive ions
 #
 # Projectile: electron
 # Kinetic energy = 3.70000E+06 eV = 1.35973E+05 a.u.
 #
 # WARNING: High-energy factorization with free-atom DF screening.
 #          Absorption, polarization and exchange corrections are
 #          switched off.
 #          Phase shifts are calculated for the bare nucleus.
 #          Scattering amplitudes are not evaluated.
 #
 # Element: Ge,  Z =  32,  atomic weight = 7.26100E+01 g/mol
 #
 # Nuclear model: Fermi distribution
 #                Average radius = 4.46392E-13 cm
 #                Skin thickness = 5.46000E-14 cm
 #
 # Number of electrons = 32
 #
 # Total elastic cross section = 2.38458E-18 cm**2 = 8.51549E-02 a0**2
 # 1st transport cross section = 8.84571E-23 cm**2 = 3.15886E-06 a0**2
 # 2nd transport cross section = 2.49364E-22 cm**2 = 8.90495E-06 a0**2
 #
 #
 # Differential cross section:                       MU=(1-COS(THETA))/2
 #
 #  THETA        MU          DCS          DCS        Sherman      error
 #  (deg)                 (cm**2/sr)   (a0**2/sr)    function
 #----------------------------------------------------------------------
  0.000E+00  0.00000E+00  3.62977E-13  1.29621E+04  0.00000E+00  1.0E-05
  1.000E-04  7.61557E-13  3.62975E-13  1.29621E+04  0.00000E+00  1.0E-05
  1.250E-04  1.18994E-12  3.62974E-13  1.29620E+04  0.00000E+00  1.0E-05
  1.500E-04  1.71346E-12  3.62973E-13  1.29620E+04  0.00000E+00  1.0E-05
  1.750E-04  2.33225E-12  3.62972E-13  1.29620E+04  0.00000E+00  1.0E-05
  2.000E-04  3.04617E-12  3.62970E-13  1.29619E+04  0.00000E+00  1.0E-05
  2.250E-04  3.85530E-12  3.62969E-13  1.29618E+04  0.00000E+00  1.0E-05
  2.500E-04  4.75964E-12  3.62967E-13  1.29618E+04  0.00000E+00  1.0E-05
  2.750E-04  5.75917E-12  3.62965E-13  1.29617E+04  0.00000E+00  1.0E-05
  3.000E-04  6.85391E-12  3.62962E-13  1.29616E+04  0.00000E+00  1.0E-05
  3.250E-04  8.04379E-12  3.62960E-13  1.29615E+04  0.00000E+00  1.0E-05
  3.500E-04  9.32893E-12  3.62957E-13  1.29614E+04  0.00000E+00  1.0E-05
  3.750E-04  1.07092E-11  3.62954E-13  1.29613E+04  0.00000E+00  1.0E-05
  4.000E-04  1.21847E-11  3.62951E-13  1.29612E+04  0.00000E+00  1.0E-05
  4.250E-04  1.37554E-11  3.62948E-13  1.29611E+04  0.00000E+00  1.0E-05
  4.500E-04  1.54213E-11  3.62944E-13  1.29610E+04  0.00000E+00  1.0E-05
  4.750E-04  1.71823E-11  3.62941E-13  1.29608E+04  0.00000E+00  1.0E-05
  5.000E-04  1.90386E-11  3.62937E-13  1.29607E+04  0.00000E+00  1.0E-05
  5.250E-04  2.09900E-11  3.62933E-13  1.29606E+04  0.00000E+00  1.0E-05
  5.500E-04  2.30367E-11  3.62928E-13  1.29604E+04  0.00000E+00  1.0E-05
  5.750E-04  2.51785E-11  3.62924E-13  1.29602E+04  0.00000E+00  1.0E-05
  6.000E-04  2.74156E-11  3.62919E-13  1.29601E+04  0.00000E+00  1.0E-05
  6.250E-04  2.97478E-11  3.62914E-13  1.29599E+04  0.00000E+00  1.0E-05
  6.500E-04  3.21752E-11  3.62909E-13  1.29597E+04  0.00000E+00  1.0E-05
  6.750E-04  3.46979E-11  3.62904E-13  1.29595E+04  0.00000E+00  1.0E-05
  7.000E-04  3.73157E-11  3.62898E-13  1.29593E+04  0.00000E+00  1.0E-05
  7.250E-04  4.00286E-11  3.62893E-13  1.29591E+04  0.00000E+00  1.0E-05
  7.500E-04  4.28368E-11  3.62887E-13  1.29589E+04  0.00000E+00  1.0E-05
  7.750E-04  4.57402E-11  3.62881E-13  1.29587E+04  0.00000E+00  1.0E-05
  8.000E-04  4.87388E-11  3.62874E-13  1.29585E+04  0.00000E+00  1.0E-05
  8.250E-04  5.18325E-11  3.62868E-13  1.29582E+04  0.00000E+00  1.0E-05
  8.500E-04  5.50215E-11  3.62861E-13  1.29580E+04  0.00000E+00  1.0E-05
  8.750E-04  5.83057E-11  3.62854E-13  1.29578E+04  0.00000E+00  1.0E-05
  9.000E-04  6.16850E-11  3.62847E-13  1.29575E+04  0.00000E+00  1.0E-05
  9.250E-04  6.51595E-11  3.62840E-13  1.29572E+04  0.00000E+00  1.0E-05
  9.500E-04  6.87293E-11  3.62832E-13  1.29570E+04  0.00000E+00  1.0E-05
  9.750E-04  7.23943E-11  3.62824E-13  1.29567E+04  0.00000E+00  1.0E-05
  1.000E-03  7.61544E-11  3.62817E-13  1.29564E+04  0.00000E+00  1.0E-05
  1.250E-03  1.18991E-10  3.62726E-13  1.29532E+04  0.00000E+00  1.0E-05
  1.500E-03  1.71347E-10  3.62616E-13  1.29493E+04  0.00000E+00  1.0E-05
  1.750E-03  2.33223E-10  3.62486E-13  1.29446E+04  0.00000E+00  1.0E-05
  2.000E-03  3.04617E-10  3.62336E-13  1.29393E+04  0.00000E+00  1.0E-05
  2.250E-03  3.85531E-10  3.62166E-13  1.29332E+04  0.00000E+00  1.0E-05
  2.500E-03  4.75965E-10  3.61976E-13  1.29264E+04  0.00000E+00  1.0E-05
  2.750E-03  5.75917E-10  3.61767E-13  1.29189E+04  0.00000E+00  1.0E-05
  3.000E-03  6.85389E-10  3.61537E-13  1.29107E+04  0.00000E+00  1.0E-05
  3.250E-03  8.04380E-10  3.61288E-13  1.29018E+04  0.00000E+00  1.0E-05
  3.500E-03  9.32891E-10  3.61019E-13  1.28922E+04  0.00000E+00  1.0E-05
  3.750E-03  1.07092E-09  3.60731E-13  1.28819E+04  0.00000E+00  1.0E-05
  4.000E-03  1.21847E-09  3.60423E-13  1.28710E+04  0.00000E+00  1.0E-05
  4.250E-03  1.37554E-09  3.60096E-13  1.28593E+04  0.00000E+00  1.0E-05
  4.500E-03  1.54213E-09  3.59750E-13  1.28469E+04  0.00000E+00  1.0E-05
  4.750E-03  1.71823E-09  3.59384E-13  1.28338E+04  0.00000E+00  1.0E-05
  5.000E-03  1.90386E-09  3.58999E-13  1.28201E+04  0.00000E+00  1.0E-05
  5.250E-03  2.09900E-09  3.58595E-13  1.28057E+04  0.00000E+00  1.0E-05
  5.500E-03  2.30367E-09  3.58172E-13  1.27906E+04  0.00000E+00  1.0E-05
  5.750E-03  2.51785E-09  3.57731E-13  1.27748E+04  0.00000E+00  1.0E-05
  6.000E-03  2.74156E-09  3.57270E-13  1.27584E+04  0.00000E+00  1.0E-05
  6.250E-03  2.97478E-09  3.56791E-13  1.27413E+04  0.00000E+00  1.0E-05
  6.500E-03  3.21752E-09  3.56294E-13  1.27235E+04  0.00000E+00  1.0E-05
  6.750E-03  3.46978E-09  3.55778E-13  1.27051E+04  0.00000E+00  1.0E-05
  7.000E-03  3.73156E-09  3.55244E-13  1.26860E+04  0.00000E+00  1.0E-05
  7.250E-03  4.00286E-09  3.54692E-13  1.26663E+04  0.00000E+00  1.0E-05
  7.500E-03  4.28368E-09  3.54122E-13  1.26459E+04  0.00000E+00  1.0E-05
  7.750E-03  4.57402E-09  3.53534E-13  1.26249E+04  0.00000E+00  1.0E-05
  8.000E-03  4.87388E-09  3.52929E-13  1.26033E+04  0.00000E+00  1.0E-05
  8.250E-03  5.18326E-09  3.52306E-13  1.25811E+04  0.00000E+00  1.0E-05
  8.500E-03  5.50215E-09  3.51666E-13  1.25582E+04  0.00000E+00  1.0E-05
  8.750E-03  5.83057E-09  3.51008E-13  1.25347E+04  0.00000E+00  1.0E-05
  9.000E-03  6.16850E-09  3.50334E-13  1.25106E+04  0.00000E+00  1.0E-05
  9.250E-03  6.51596E-09  3.49642E-13  1.24860E+04  0.00000E+00  1.0E-05
  9.500E-03  6.87293E-09  3.48935E-13  1.24607E+04  0.00000E+00  1.0E-05
  9.750E-03  7.23942E-09  3.48210E-13  1.24348E+04  0.00000E+00  1.0E-05
  1.000E-02  7.61544E-09  3.47469E-13  1.24083E+04  0.00000E+00  1.0E-05
  1.250E-02  1.18991E-08  3.39204E-13  1.21132E+04  0.00000E+00  1.0E-05
  1.500E-02  1.71347E-08  3.29480E-13  1.17660E+04  0.00000E+00  1.0E-05
  1.750E-02  2.33223E-08  3.18589E-13  1.13770E+04  0.00000E+00  1.0E-05
  2.000E-02  3.04617E-08  3.06753E-13  1.09543E+04  0.00000E+00  1.0E-05
  2.250E-02  3.85531E-08  2.94136E-13  1.05038E+04  0.00000E+00  1.0E-05
  2.500E-02  4.75965E-08  2.80974E-13  1.00338E+04  0.00000E+00  1.0E-05
  2.750E-02  5.75917E-08  2.67531E-13  9.55369E+03  0.00000E+00  1.0E-05
  3.000E-02  6.85389E-08  2.54001E-13  9.07056E+03  0.00000E+00  1.0E-05
  3.250E-02  8.04380E-08  2.40498E-13  8.58834E+03  0.00000E+00  1.0E-05
  3.500E-02  9.32891E-08  2.27139E-13  8.11128E+03  0.00000E+00  1.0E-05
  3.750E-02  1.07092E-07  2.14127E-13  7.64663E+03  0.00000E+00  1.0E-05
  4.000E-02  1.21847E-07  2.01555E-13  7.19767E+03  0.00000E+00  1.0E-05
  4.250E-02  1.37554E-07  1.89466E-13  6.76596E+03  0.00000E+00  1.0E-05
  4.500E-02  1.54213E-07  1.77853E-13  6.35123E+03  0.00000E+00  1.0E-05
  4.750E-02  1.71823E-07  1.66840E-13  5.95796E+03  0.00000E+00  1.0E-05
  5.000E-02  1.90386E-07  1.56441E-13  5.58663E+03  0.00000E+00  1.0E-05
  5.250E-02  2.09900E-07  1.46656E-13  5.23719E+03  0.00000E+00  1.0E-05
  5.500E-02  2.30367E-07  1.37409E-13  4.90696E+03  0.00000E+00  1.0E-05
  5.750E-02  2.51785E-07  1.28767E-13  4.59836E+03  0.00000E+00  1.0E-05
  6.000E-02  2.74156E-07  1.20707E-13  4.31052E+03  0.00000E+00  1.0E-05
  6.250E-02  2.97478E-07  1.13200E-13  4.04246E+03  0.00000E+00  1.0E-05
  6.500E-02  3.21752E-07  1.06183E-13  3.79186E+03  0.00000E+00  1.0E-05
  6.750E-02  3.46978E-07  9.96614E-14  3.55897E+03  0.00000E+00  1.0E-05
  7.000E-02  3.73156E-07  9.36117E-14  3.34294E+03  0.00000E+00  1.0E-05
  7.250E-02  4.00286E-07  8.80015E-14  3.14259E+03  0.00000E+00  1.0E-05
  7.500E-02  4.28368E-07  8.27829E-14  2.95623E+03  0.00000E+00  1.0E-05
  7.750E-02  4.57402E-07  7.79380E-14  2.78322E+03  0.00000E+00  1.0E-05
  8.000E-02  4.87388E-07  7.34487E-14  2.62290E+03  0.00000E+00  1.0E-05
  8.250E-02  5.18325E-07  6.92871E-14  2.47429E+03  0.00000E+00  1.0E-05
  8.500E-02  5.50215E-07  6.54201E-14  2.33619E+03  0.00000E+00  1.0E-05
  8.750E-02  5.83057E-07  6.18237E-14  2.20776E+03  0.00000E+00  1.0E-05
  9.000E-02  6.16850E-07  5.84861E-14  2.08858E+03  0.00000E+00  1.0E-05
  9.250E-02  6.51596E-07  5.53861E-14  1.97787E+03  0.00000E+00  1.0E-05
  9.500E-02  6.87293E-07  5.25017E-14  1.87487E+03  0.00000E+00  1.0E-05
  9.750E-02  7.23942E-07  4.98097E-14  1.77874E+03  0.00000E+00  1.0E-05
  1.000E-01  7.61543E-07  4.73037E-14  1.68924E+03  0.00000E+00  1.0E-05
  1.250E-01  1.18991E-06  2.96282E-14  1.05804E+03  0.00000E+00  1.0E-05
  1.500E-01  1.71347E-06  1.96980E-14  7.03427E+02  0.00000E+00  1.0E-05
  1.750E-01  2.33223E-06  1.38584E-14  4.94891E+02  0.00000E+00  1.0E-05
  2.000E-01  3.04617E-06  1.00781E-14  3.59897E+02  0.00000E+00  1.0E-05
  2.250E-01  3.85531E-06  7.42281E-15  2.65073E+02  0.00000E+00  1.0E-05
  2.500E-01  4.75964E-06  5.53950E-15  1.97819E+02  0.00000E+00  1.0E-05
  2.750E-01  5.75916E-06  4.19778E-15  1.49905E+02  0.00000E+00  1.0E-05
  3.000E-01  6.85388E-06  3.22036E-15  1.15001E+02  0.00000E+00  1.0E-05
  3.250E-01  8.04378E-06  2.49104E-15  8.89568E+01  0.00000E+00  1.0E-05
  3.500E-01  9.32888E-06  1.94420E-15  6.94287E+01  0.00000E+00  1.0E-05
  3.750E-01  1.07092E-05  1.53567E-15  5.48397E+01  0.00000E+00  1.0E-05
  4.000E-01  1.21846E-05  1.22627E-15  4.37909E+01  0.00000E+00  1.0E-05
  4.250E-01  1.37553E-05  9.88926E-16  3.53152E+01  0.00000E+00  1.0E-05
  4.500E-01  1.54212E-05  8.04883E-16  2.87429E+01  0.00000E+00  1.0E-05
  4.750E-01  1.71822E-05  6.61798E-16  2.36332E+01  0.00000E+00  1.0E-05
  5.000E-01  1.90385E-05  5.49235E-16  1.96135E+01  0.00000E+00  1.0E-05
  5.250E-01  2.09899E-05  4.59933E-16  1.64245E+01  0.00000E+00  1.0E-05
  5.500E-01  2.30365E-05  3.88164E-16  1.38616E+01  0.00000E+00  1.0E-05
  5.750E-01  2.51783E-05  3.30135E-16  1.17893E+01  0.00000E+00  1.0E-05
  6.000E-01  2.74153E-05  2.82782E-16  1.00983E+01  0.00000E+00  1.0E-05
  6.250E-01  2.97475E-05  2.43820E-16  8.70697E+00  0.00000E+00  1.0E-05
  6.500E-01  3.21749E-05  2.11480E-16  7.55208E+00  0.00000E+00  1.0E-05
  6.750E-01  3.46974E-05  1.84435E-16  6.58629E+00  0.00000E+00  1.0E-05
  7.000E-01  3.73152E-05  1.61684E-16  5.77385E+00  0.00000E+00  1.0E-05
  7.250E-01  4.00281E-05  1.42426E-16  5.08612E+00  0.00000E+00  1.0E-05
  7.500E-01  4.28362E-05  1.25999E-16  4.49950E+00  0.00000E+00  1.0E-05
  7.750E-01  4.57395E-05  1.11910E-16  3.99636E+00  0.00000E+00  1.0E-05
  8.000E-01  4.87380E-05  9.97689E-17  3.56281E+00  0.00000E+00  1.0E-05
  8.250E-01  5.18317E-05  8.92533E-17  3.18729E+00  0.00000E+00  1.0E-05
  8.500E-01  5.50205E-05  8.00914E-17  2.86011E+00  0.00000E+00  1.0E-05
  8.750E-01  5.83045E-05  7.20712E-17  2.57371E+00  0.00000E+00  1.0E-05
  9.000E-01  6.16838E-05  6.50352E-17  2.32245E+00  0.00000E+00  1.0E-05
  9.250E-01  6.51582E-05  5.88399E-17  2.10121E+00  0.00000E+00  1.0E-05
  9.500E-01  6.87277E-05  5.33622E-17  1.90560E+00  0.00000E+00  1.0E-05
  9.750E-01  7.23925E-05  4.84968E-17  1.73185E+00  0.00000E+00  1.0E-05
  1.000E+00  7.61524E-05  4.41726E-17  1.57743E+00  0.00000E+00  7.8E-06
  1.100E+00  9.21439E-05  3.09977E-17  1.10695E+00  0.00000E+00  5.8E-06
  1.200E+00  1.09658E-04  2.23481E-17  7.98065E-01  0.00000E+00  3.1E-06
  1.300E+00  1.28695E-04  1.64867E-17  5.88752E-01  0.00000E+00  5.7E-07
  1.400E+00  1.49255E-04  1.24023E-17  4.42896E-01  0.00000E+00  1.3E-06
  1.500E+00  1.71338E-04  9.50582E-18  3.39459E-01  0.00000E+00  2.3E-06
  1.600E+00  1.94942E-04  7.40381E-18  2.64395E-01  0.00000E+00  2.4E-06
  1.700E+00  2.20070E-04  5.84920E-18  2.08879E-01  0.00000E+00  1.9E-06
  1.800E+00  2.46720E-04  4.68045E-18  1.67142E-01  0.00000E+00  1.1E-06
  1.900E+00  2.74892E-04  3.78986E-18  1.35338E-01  0.00000E+00  1.4E-07
  2.000E+00  3.04586E-04  3.10174E-18  1.10765E-01  0.00000E+00  6.2E-07
  2.100E+00  3.35803E-04  2.56330E-18  9.15371E-02  0.00000E+00  1.0E-06
  2.200E+00  3.68542E-04  2.13687E-18  7.63092E-02  0.00000E+00  1.1E-06
  2.300E+00  4.02802E-04  1.79591E-18  6.41330E-02  0.00000E+00  8.7E-07
  2.400E+00  4.38585E-04  1.52060E-18  5.43016E-02  0.00000E+00  4.7E-07
  2.500E+00  4.75889E-04  1.29633E-18  4.62926E-02  0.00000E+00  1.0E-07
  2.600E+00  5.14715E-04  1.11200E-18  3.97102E-02  0.00000E+00  3.6E-07
  2.700E+00  5.55063E-04  9.59444E-19  3.42624E-02  0.00000E+00  5.7E-07
  2.800E+00  5.96931E-04  8.32291E-19  2.97216E-02  0.00000E+00  6.0E-07
  2.900E+00  6.40321E-04  7.25609E-19  2.59120E-02  0.00000E+00  4.7E-07
  3.000E+00  6.85233E-04  6.35527E-19  2.26951E-02  0.00000E+00  2.5E-07
  3.100E+00  7.31665E-04  5.59040E-19  1.99637E-02  0.00000E+00  1.0E-07
  3.200E+00  7.79618E-04  4.93766E-19  1.76327E-02  0.00000E+00  2.3E-07
  3.300E+00  8.29092E-04  4.37780E-19  1.56334E-02  0.00000E+00  3.5E-07
  3.400E+00  8.80086E-04  3.89525E-19  1.39102E-02  0.00000E+00  3.7E-07
  3.500E+00  9.32601E-04  3.47749E-19  1.24183E-02  0.00000E+00  2.8E-07
  3.600E+00  9.86636E-04  3.11443E-19  1.11218E-02  0.00000E+00  1.4E-07
  3.700E+00  1.04219E-03  2.79768E-19  9.99068E-03  0.00000E+00  1.0E-07
  3.800E+00  1.09927E-03  2.52026E-19  9.00001E-03  0.00000E+00  1.7E-07
  3.900E+00  1.15786E-03  2.27640E-19  8.12916E-03  0.00000E+00  2.4E-07
  4.000E+00  1.21797E-03  2.06140E-19  7.36140E-03  0.00000E+00  2.4E-07
  4.100E+00  1.27961E-03  1.87126E-19  6.68239E-03  0.00000E+00  1.8E-07
  4.200E+00  1.34276E-03  1.70259E-19  6.08005E-03  0.00000E+00  1.0E-07
  4.300E+00  1.40743E-03  1.55248E-19  5.54402E-03  0.00000E+00  1.0E-07
  4.400E+00  1.47362E-03  1.41860E-19  5.06591E-03  0.00000E+00  1.2E-07
  4.500E+00  1.54133E-03  1.29887E-19  4.63835E-03  0.00000E+00  1.7E-07
  4.600E+00  1.61056E-03  1.19153E-19  4.25504E-03  0.00000E+00  1.7E-07
  4.700E+00  1.68131E-03  1.09505E-19  3.91050E-03  0.00000E+00  1.2E-07
  4.800E+00  1.75357E-03  1.00816E-19  3.60020E-03  0.00000E+00  1.0E-07
  4.900E+00  1.82735E-03  9.29730E-20  3.32013E-03  0.00000E+00  1.0E-07
  5.000E+00  1.90265E-03  8.58798E-20  3.06682E-03  0.00000E+00  1.0E-07
  5.100E+00  1.97947E-03  7.94502E-20  2.83722E-03  0.00000E+00  1.3E-07
  5.200E+00  2.05780E-03  7.36119E-20  2.62873E-03  0.00000E+00  1.2E-07
  5.300E+00  2.13765E-03  6.83013E-20  2.43908E-03  0.00000E+00  1.0E-07
  5.400E+00  2.21902E-03  6.34620E-20  2.26627E-03  0.00000E+00  1.0E-07
  5.500E+00  2.30190E-03  5.90440E-20  2.10850E-03  0.00000E+00  1.0E-07
  5.600E+00  2.38630E-03  5.50043E-20  1.96424E-03  0.00000E+00  1.0E-07
  5.700E+00  2.47222E-03  5.13049E-20  1.83213E-03  0.00000E+00  1.0E-07
  5.800E+00  2.55965E-03  4.79120E-20  1.71097E-03  0.00000E+00  1.0E-07
  5.900E+00  2.64859E-03  4.47955E-20  1.59968E-03  0.00000E+00  1.0E-07
  6.000E+00  2.73905E-03  4.19284E-20  1.49729E-03  0.00000E+00  1.0E-07
  6.100E+00  2.83103E-03  3.92876E-20  1.40299E-03  0.00000E+00  1.0E-07
  6.200E+00  2.92452E-03  3.68520E-20  1.31601E-03  0.00000E+00  1.0E-07
  6.300E+00  3.01952E-03  3.46026E-20  1.23568E-03  0.00000E+00  1.0E-07
  6.400E+00  3.11604E-03  3.25223E-20  1.16139E-03  0.00000E+00  1.0E-07
  6.500E+00  3.21407E-03  3.05965E-20  1.09262E-03  0.00000E+00  1.0E-07
  6.600E+00  3.31362E-03  2.88115E-20  1.02888E-03  0.00000E+00  1.0E-07
  6.700E+00  3.41468E-03  2.71551E-20  9.69726E-04  0.00000E+00  1.0E-07
  6.800E+00  3.51725E-03  2.56162E-20  9.14770E-04  0.00000E+00  1.0E-07
  6.900E+00  3.62133E-03  2.41850E-20  8.63662E-04  0.00000E+00  1.0E-07
  7.000E+00  3.72692E-03  2.28527E-20  8.16085E-04  0.00000E+00  1.0E-07
  7.100E+00  3.83403E-03  2.16112E-20  7.71748E-04  0.00000E+00  1.0E-07
  7.200E+00  3.94265E-03  2.04529E-20  7.30388E-04  0.00000E+00  1.0E-07
  7.300E+00  4.05278E-03  1.93715E-20  6.91768E-04  0.00000E+00  1.0E-07
  7.400E+00  4.16442E-03  1.83608E-20  6.55675E-04  0.00000E+00  1.0E-07
  7.500E+00  4.27757E-03  1.74153E-20  6.21913E-04  0.00000E+00  1.0E-07
  7.600E+00  4.39223E-03  1.65301E-20  5.90302E-04  0.00000E+00  1.0E-07
  7.700E+00  4.50840E-03  1.57006E-20  5.60679E-04  0.00000E+00  1.0E-07
  7.800E+00  4.62608E-03  1.49226E-20  5.32897E-04  0.00000E+00  1.0E-07
  7.900E+00  4.74527E-03  1.41924E-20  5.06821E-04  0.00000E+00  1.0E-07
  8.000E+00  4.86597E-03  1.35065E-20  4.82325E-04  0.00000E+00  1.0E-07
  8.100E+00  4.98817E-03  1.28616E-20  4.59296E-04  0.00000E+00  1.0E-07
  8.200E+00  5.11188E-03  1.22549E-20  4.37629E-04  0.00000E+00  1.0E-07
  8.300E+00  5.23711E-03  1.16836E-20  4.17230E-04  0.00000E+00  1.0E-07
  8.400E+00  5.36383E-03  1.11454E-20  3.98010E-04  0.00000E+00  1.0E-07
  8.500E+00  5.49207E-03  1.06379E-20  3.79887E-04  0.00000E+00  1.0E-07
  8.600E+00  5.62181E-03  1.01591E-20  3.62787E-04  0.00000E+00  1.0E-07
  8.700E+00  5.75306E-03  9.70700E-21  3.46643E-04  0.00000E+00  1.0E-07
  8.800E+00  5.88581E-03  9.27989E-21  3.31391E-04  0.00000E+00  1.0E-07
  8.900E+00  6.02007E-03  8.87608E-21  3.16971E-04  0.00000E+00  1.0E-07
  9.000E+00  6.15583E-03  8.49409E-21  3.03329E-04  0.00000E+00  1.0E-07
  9.100E+00  6.29310E-03  8.13251E-21  2.90417E-04  0.00000E+00  1.0E-07
  9.200E+00  6.43187E-03  7.79005E-21  2.78188E-04  0.00000E+00  1.0E-07
  9.300E+00  6.57214E-03  7.46549E-21  2.66598E-04  0.00000E+00  1.0E-07
  9.400E+00  6.71392E-03  7.15773E-21  2.55607E-04  0.00000E+00  1.0E-07
  9.500E+00  6.85720E-03  6.86573E-21  2.45180E-04  0.00000E+00  1.0E-07
  9.600E+00  7.00198E-03  6.58854E-21  2.35281E-04  0.00000E+00  1.0E-07
  9.700E+00  7.14827E-03  6.32525E-21  2.25879E-04  0.00000E+00  1.0E-07
  9.800E+00  7.29605E-03  6.07504E-21  2.16943E-04  0.00000E+00  1.0E-07
  9.900E+00  7.44534E-03  5.83713E-21  2.08448E-04  0.00000E+00  1.0E-07
  1.000E+01  7.59612E-03  5.61081E-21  2.00366E-04  0.00000E+00  1.0E-07
  1.025E+01  7.97965E-03  5.09139E-21  1.81817E-04  0.00000E+00  1.0E-07
  1.050E+01  8.37255E-03  4.63097E-21  1.65375E-04  0.00000E+00  1.0E-07
  1.075E+01  8.77480E-03  4.22166E-21  1.50758E-04  0.00000E+00  1.0E-07
  1.100E+01  9.18641E-03  3.85679E-21  1.37728E-04  0.00000E+00  1.0E-07
  1.125E+01  9.60736E-03  3.53068E-21  1.26083E-04  0.00000E+00  1.0E-07
  1.150E+01  1.00376E-02  3.23849E-21  1.15649E-04  0.00000E+00  1.0E-07
  1.175E+01  1.04773E-02  2.97606E-21  1.06277E-04  0.00000E+00  1.0E-07
  1.200E+01  1.09262E-02  2.73981E-21  9.78402E-05  0.00000E+00  1.0E-07
  1.225E+01  1.13844E-02  2.52666E-21  9.02287E-05  0.00000E+00  1.0E-07
  1.250E+01  1.18520E-02  2.33395E-21  8.33469E-05  0.00000E+00  1.0E-07
  1.275E+01  1.23288E-02  2.15937E-21  7.71124E-05  0.00000E+00  1.0E-07
  1.300E+01  1.28150E-02  2.00089E-21  7.14532E-05  0.00000E+00  1.0E-07
  1.325E+01  1.33104E-02  1.85677E-21  6.63065E-05  0.00000E+00  1.0E-07
  1.350E+01  1.38150E-02  1.72547E-21  6.16177E-05  0.00000E+00  1.0E-07
  1.375E+01  1.43290E-02  1.60564E-21  5.73384E-05  0.00000E+00  1.0E-07
  1.400E+01  1.48521E-02  1.49609E-21  5.34263E-05  0.00000E+00  1.0E-07
  1.425E+01  1.53845E-02  1.39578E-21  4.98443E-05  0.00000E+00  1.0E-07
  1.450E+01  1.59262E-02  1.30379E-21  4.65592E-05  0.00000E+00  1.0E-07
  1.475E+01  1.64770E-02  1.21930E-21  4.35420E-05  0.00000E+00  1.0E-07
  1.500E+01  1.70371E-02  1.14159E-21  4.07668E-05  0.00000E+00  1.0E-07
  1.525E+01  1.76063E-02  1.07000E-21  3.82105E-05  0.00000E+00  1.0E-07
