 #
 # Subroutine ELSEPA. Elastic scattering of electrons and positrons
 #                    by neutral atoms and positive ions
 #
 # Projectile: electron
 # Kinetic energy = 3.70000E+06 eV = 1.35973E+05 a.u.
 #
 # WARNING: High-energy factorization with free-atom DF screening.
 #          Absorption, polarization and exchange corrections are
 #          switched off.
 #          Phase shifts are calculated for the bare nucleus.
 #          Scattering amplitudes are not evaluated.
 #
 # Element: Hf,  Z =  72,  atomic weight = 1.78490E+02 g/mol
 #
 # Nuclear model: Fermi distribution
 #                Average radius = 6.02451E-13 cm
 #                Skin thickness = 5.46000E-14 cm
 #
 # Number of electrons = 72
 #
 # Total elastic cross section = 7.43606E-18 cm**2 = 2.65547E-01 a0**2
 # 1st transport cross section = 4.74440E-22 cm**2 = 1.69426E-05 a0**2
 # 2nd transport cross section = 1.28047E-21 cm**2 = 4.57264E-05 a0**2
 #
 #
 # Differential cross section:                       MU=(1-COS(THETA))/2
 #
 #  THETA        MU          DCS          DCS        Sherman      error
 #  (deg)                 (cm**2/sr)   (a0**2/sr)    function
 #----------------------------------------------------------------------
  0.000E+00  0.00000E+00  1.12040E-12  4.00101E+04  0.00000E+00  1.0E-05
  1.000E-04  7.61557E-13  1.12039E-12  4.00099E+04  0.00000E+00  1.0E-05
  1.250E-04  1.18994E-12  1.12039E-12  4.00097E+04  0.00000E+00  1.0E-05
  1.500E-04  1.71346E-12  1.12038E-12  4.00096E+04  0.00000E+00  1.0E-05
  1.750E-04  2.33225E-12  1.12038E-12  4.00094E+04  0.00000E+00  1.0E-05
  2.000E-04  3.04617E-12  1.12037E-12  4.00092E+04  0.00000E+00  1.0E-05
  2.250E-04  3.85530E-12  1.12036E-12  4.00089E+04  0.00000E+00  1.0E-05
  2.500E-04  4.75964E-12  1.12036E-12  4.00087E+04  0.00000E+00  1.0E-05
  2.750E-04  5.75917E-12  1.12035E-12  4.00084E+04  0.00000E+00  1.0E-05
  3.000E-04  6.85391E-12  1.12034E-12  4.00081E+04  0.00000E+00  1.0E-05
  3.250E-04  8.04379E-12  1.12033E-12  4.00077E+04  0.00000E+00  1.0E-05
  3.500E-04  9.32893E-12  1.12032E-12  4.00073E+04  0.00000E+00  1.0E-05
  3.750E-04  1.07092E-11  1.12031E-12  4.00069E+04  0.00000E+00  1.0E-05
  4.000E-04  1.21847E-11  1.12030E-12  4.00065E+04  0.00000E+00  1.0E-05
  4.250E-04  1.37554E-11  1.12028E-12  4.00060E+04  0.00000E+00  1.0E-05
  4.500E-04  1.54213E-11  1.12027E-12  4.00056E+04  0.00000E+00  1.0E-05
  4.750E-04  1.71823E-11  1.12026E-12  4.00050E+04  0.00000E+00  1.0E-05
  5.000E-04  1.90386E-11  1.12024E-12  4.00045E+04  0.00000E+00  1.0E-05
  5.250E-04  2.09900E-11  1.12022E-12  4.00039E+04  0.00000E+00  1.0E-05
  5.500E-04  2.30367E-11  1.12021E-12  4.00033E+04  0.00000E+00  1.0E-05
  5.750E-04  2.51785E-11  1.12019E-12  4.00027E+04  0.00000E+00  1.0E-05
  6.000E-04  2.74156E-11  1.12017E-12  4.00020E+04  0.00000E+00  1.0E-05
  6.250E-04  2.97478E-11  1.12015E-12  4.00013E+04  0.00000E+00  1.0E-05
  6.500E-04  3.21752E-11  1.12013E-12  4.00006E+04  0.00000E+00  1.0E-05
  6.750E-04  3.46979E-11  1.12011E-12  3.99999E+04  0.00000E+00  1.0E-05
  7.000E-04  3.73157E-11  1.12009E-12  3.99991E+04  0.00000E+00  1.0E-05
  7.250E-04  4.00286E-11  1.12007E-12  3.99983E+04  0.00000E+00  1.0E-05
  7.500E-04  4.28368E-11  1.12004E-12  3.99975E+04  0.00000E+00  1.0E-05
  7.750E-04  4.57402E-11  1.12002E-12  3.99967E+04  0.00000E+00  1.0E-05
  8.000E-04  4.87388E-11  1.12000E-12  3.99958E+04  0.00000E+00  1.0E-05
  8.250E-04  5.18325E-11  1.11997E-12  3.99949E+04  0.00000E+00  1.0E-05
  8.500E-04  5.50215E-11  1.11994E-12  3.99939E+04  0.00000E+00  1.0E-05
  8.750E-04  5.83057E-11  1.11992E-12  3.99930E+04  0.00000E+00  1.0E-05
  9.000E-04  6.16850E-11  1.11989E-12  3.99920E+04  0.00000E+00  1.0E-05
  9.250E-04  6.51595E-11  1.11986E-12  3.99910E+04  0.00000E+00  1.0E-05
  9.500E-04  6.87293E-11  1.11983E-12  3.99899E+04  0.00000E+00  1.0E-05
  9.750E-04  7.23943E-11  1.11980E-12  3.99888E+04  0.00000E+00  1.0E-05
  1.000E-03  7.61544E-11  1.11977E-12  3.99877E+04  0.00000E+00  1.0E-05
  1.250E-03  1.18991E-10  1.11942E-12  3.99751E+04  0.00000E+00  1.0E-05
  1.500E-03  1.71347E-10  1.11899E-12  3.99598E+04  0.00000E+00  1.0E-05
  1.750E-03  2.33223E-10  1.11848E-12  3.99416E+04  0.00000E+00  1.0E-05
  2.000E-03  3.04617E-10  1.11789E-12  3.99207E+04  0.00000E+00  1.0E-05
  2.250E-03  3.85531E-10  1.11723E-12  3.98970E+04  0.00000E+00  1.0E-05
  2.500E-03  4.75965E-10  1.11649E-12  3.98706E+04  0.00000E+00  1.0E-05
  2.750E-03  5.75917E-10  1.11567E-12  3.98413E+04  0.00000E+00  1.0E-05
  3.000E-03  6.85389E-10  1.11478E-12  3.98094E+04  0.00000E+00  1.0E-05
  3.250E-03  8.04380E-10  1.11381E-12  3.97747E+04  0.00000E+00  1.0E-05
  3.500E-03  9.32891E-10  1.11276E-12  3.97373E+04  0.00000E+00  1.0E-05
  3.750E-03  1.07092E-09  1.11163E-12  3.96972E+04  0.00000E+00  1.0E-05
  4.000E-03  1.21847E-09  1.11044E-12  3.96544E+04  0.00000E+00  1.0E-05
  4.250E-03  1.37554E-09  1.10916E-12  3.96089E+04  0.00000E+00  1.0E-05
  4.500E-03  1.54213E-09  1.10781E-12  3.95607E+04  0.00000E+00  1.0E-05
  4.750E-03  1.71823E-09  1.10639E-12  3.95099E+04  0.00000E+00  1.0E-05
  5.000E-03  1.90386E-09  1.10490E-12  3.94565E+04  0.00000E+00  1.0E-05
  5.250E-03  2.09900E-09  1.10333E-12  3.94005E+04  0.00000E+00  1.0E-05
  5.500E-03  2.30367E-09  1.10168E-12  3.93419E+04  0.00000E+00  1.0E-05
  5.750E-03  2.51785E-09  1.09997E-12  3.92807E+04  0.00000E+00  1.0E-05
  6.000E-03  2.74156E-09  1.09819E-12  3.92169E+04  0.00000E+00  1.0E-05
  6.250E-03  2.97478E-09  1.09633E-12  3.91506E+04  0.00000E+00  1.0E-05
  6.500E-03  3.21752E-09  1.09440E-12  3.90818E+04  0.00000E+00  1.0E-05
  6.750E-03  3.46978E-09  1.09241E-12  3.90106E+04  0.00000E+00  1.0E-05
  7.000E-03  3.73156E-09  1.09034E-12  3.89368E+04  0.00000E+00  1.0E-05
  7.250E-03  4.00286E-09  1.08821E-12  3.88607E+04  0.00000E+00  1.0E-05
  7.500E-03  4.28368E-09  1.08601E-12  3.87821E+04  0.00000E+00  1.0E-05
  7.750E-03  4.57402E-09  1.08374E-12  3.87011E+04  0.00000E+00  1.0E-05
  8.000E-03  4.87388E-09  1.08141E-12  3.86178E+04  0.00000E+00  1.0E-05
  8.250E-03  5.18326E-09  1.07901E-12  3.85321E+04  0.00000E+00  1.0E-05
  8.500E-03  5.50215E-09  1.07655E-12  3.84442E+04  0.00000E+00  1.0E-05
  8.750E-03  5.83057E-09  1.07402E-12  3.83539E+04  0.00000E+00  1.0E-05
  9.000E-03  6.16850E-09  1.07143E-12  3.82614E+04  0.00000E+00  1.0E-05
  9.250E-03  6.51596E-09  1.06878E-12  3.81667E+04  0.00000E+00  1.0E-05
  9.500E-03  6.87293E-09  1.06606E-12  3.80698E+04  0.00000E+00  1.0E-05
  9.750E-03  7.23942E-09  1.06329E-12  3.79708E+04  0.00000E+00  1.0E-05
  1.000E-02  7.61544E-09  1.06046E-12  3.78696E+04  0.00000E+00  1.0E-05
  1.250E-02  1.18991E-08  1.02905E-12  3.67481E+04  0.00000E+00  1.0E-05
  1.500E-02  1.71347E-08  9.92689E-13  3.54496E+04  0.00000E+00  1.0E-05
  1.750E-02  2.33223E-08  9.52488E-13  3.40139E+04  0.00000E+00  1.0E-05
  2.000E-02  3.04617E-08  9.09473E-13  3.24779E+04  0.00000E+00  1.0E-05
  2.250E-02  3.85531E-08  8.64564E-13  3.08742E+04  0.00000E+00  1.0E-05
  2.500E-02  4.75965E-08  8.18711E-13  2.92367E+04  0.00000E+00  1.0E-05
  2.750E-02  5.75917E-08  7.72792E-13  2.75969E+04  0.00000E+00  1.0E-05
  3.000E-02  6.85389E-08  7.27500E-13  2.59795E+04  0.00000E+00  1.0E-05
  3.250E-02  8.04380E-08  6.83349E-13  2.44028E+04  0.00000E+00  1.0E-05
  3.500E-02  9.32891E-08  6.40768E-13  2.28822E+04  0.00000E+00  1.0E-05
  3.750E-02  1.07092E-07  6.00142E-13  2.14315E+04  0.00000E+00  1.0E-05
  4.000E-02  1.21847E-07  5.61677E-13  2.00578E+04  0.00000E+00  1.0E-05
  4.250E-02  1.37554E-07  5.25474E-13  1.87650E+04  0.00000E+00  1.0E-05
  4.500E-02  1.54213E-07  4.91552E-13  1.75536E+04  0.00000E+00  1.0E-05
  4.750E-02  1.71823E-07  4.59951E-13  1.64251E+04  0.00000E+00  1.0E-05
  5.000E-02  1.90386E-07  4.30608E-13  1.53773E+04  0.00000E+00  1.0E-05
  5.250E-02  2.09900E-07  4.03434E-13  1.44069E+04  0.00000E+00  1.0E-05
  5.500E-02  2.30367E-07  3.78274E-13  1.35084E+04  0.00000E+00  1.0E-05
  5.750E-02  2.51785E-07  3.55047E-13  1.26789E+04  0.00000E+00  1.0E-05
  6.000E-02  2.74156E-07  3.33621E-13  1.19138E+04  0.00000E+00  1.0E-05
  6.250E-02  2.97478E-07  3.13865E-13  1.12083E+04  0.00000E+00  1.0E-05
  6.500E-02  3.21752E-07  2.95610E-13  1.05564E+04  0.00000E+00  1.0E-05
  6.750E-02  3.46978E-07  2.78757E-13  9.95460E+03  0.00000E+00  1.0E-05
  7.000E-02  3.73156E-07  2.63196E-13  9.39890E+03  0.00000E+00  1.0E-05
  7.250E-02  4.00286E-07  2.48816E-13  8.88539E+03  0.00000E+00  1.0E-05
  7.500E-02  4.28368E-07  2.35483E-13  8.40926E+03  0.00000E+00  1.0E-05
  7.750E-02  4.57402E-07  2.23112E-13  7.96749E+03  0.00000E+00  1.0E-05
  8.000E-02  4.87388E-07  2.11636E-13  7.55765E+03  0.00000E+00  1.0E-05
  8.250E-02  5.18325E-07  2.00975E-13  7.17693E+03  0.00000E+00  1.0E-05
  8.500E-02  5.50215E-07  1.91036E-13  6.82201E+03  0.00000E+00  1.0E-05
  8.750E-02  5.83057E-07  1.81746E-13  6.49028E+03  0.00000E+00  1.0E-05
  9.000E-02  6.16850E-07  1.73077E-13  6.18068E+03  0.00000E+00  1.0E-05
  9.250E-02  6.51596E-07  1.64974E-13  5.89133E+03  0.00000E+00  1.0E-05
  9.500E-02  6.87293E-07  1.57380E-13  5.62015E+03  0.00000E+00  1.0E-05
  9.750E-02  7.23942E-07  1.50227E-13  5.36470E+03  0.00000E+00  1.0E-05
  1.000E-01  7.61543E-07  1.43512E-13  5.12492E+03  0.00000E+00  1.0E-05
  1.250E-01  1.18991E-06  9.38171E-14  3.35027E+03  0.00000E+00  1.0E-05
  1.500E-01  1.71347E-06  6.30917E-14  2.25305E+03  0.00000E+00  1.0E-05
  1.750E-01  2.33223E-06  4.44955E-14  1.58896E+03  0.00000E+00  1.0E-05
  2.000E-01  3.04617E-06  3.22643E-14  1.15218E+03  0.00000E+00  1.0E-05
  2.250E-01  3.85531E-06  2.37828E-14  8.49301E+02  0.00000E+00  1.0E-05
  2.500E-01  4.75964E-06  1.78876E-14  6.38779E+02  0.00000E+00  1.0E-05
  2.750E-01  5.75916E-06  1.37316E-14  4.90364E+02  0.00000E+00  1.0E-05
  3.000E-01  6.85388E-06  1.07178E-14  3.82740E+02  0.00000E+00  1.0E-05
  3.250E-01  8.04378E-06  8.46197E-15  3.02183E+02  0.00000E+00  1.0E-05
  3.500E-01  9.32888E-06  6.74538E-15  2.40882E+02  0.00000E+00  1.0E-05
  3.750E-01  1.07092E-05  5.43867E-15  1.94219E+02  0.00000E+00  1.0E-05
  4.000E-01  1.21846E-05  4.42834E-15  1.58139E+02  0.00000E+00  1.0E-05
  4.250E-01  1.37553E-05  3.63487E-15  1.29804E+02  0.00000E+00  1.0E-05
  4.500E-01  1.54212E-05  3.00291E-15  1.07236E+02  0.00000E+00  1.0E-05
  4.750E-01  1.71822E-05  2.50168E-15  8.93365E+01  0.00000E+00  1.0E-05
  5.000E-01  1.90385E-05  2.09902E-15  7.49574E+01  0.00000E+00  1.0E-05
  5.250E-01  2.09899E-05  1.77584E-15  6.34163E+01  0.00000E+00  1.0E-05
  5.500E-01  2.30365E-05  1.51093E-15  5.39561E+01  0.00000E+00  1.0E-05
  5.750E-01  2.51783E-05  1.29394E-15  4.62074E+01  0.00000E+00  1.0E-05
  6.000E-01  2.74153E-05  1.11485E-15  3.98121E+01  0.00000E+00  1.0E-05
  6.250E-01  2.97475E-05  9.66130E-16  3.45011E+01  0.00000E+00  1.0E-05
  6.500E-01  3.21749E-05  8.41888E-16  3.00644E+01  0.00000E+00  1.0E-05
  6.750E-01  3.46974E-05  7.37040E-16  2.63202E+01  0.00000E+00  1.0E-05
  7.000E-01  3.73152E-05  6.48406E-16  2.31550E+01  0.00000E+00  1.0E-05
  7.250E-01  4.00281E-05  5.73164E-16  2.04681E+01  0.00000E+00  1.0E-05
  7.500E-01  4.28362E-05  5.08808E-16  1.81698E+01  0.00000E+00  1.0E-05
  7.750E-01  4.57395E-05  4.53460E-16  1.61933E+01  0.00000E+00  1.0E-05
  8.000E-01  4.87380E-05  4.05625E-16  1.44851E+01  0.00000E+00  1.0E-05
  8.250E-01  5.18317E-05  3.64062E-16  1.30009E+01  0.00000E+00  1.0E-05
  8.500E-01  5.50205E-05  3.27723E-16  1.17032E+01  0.00000E+00  1.0E-05
  8.750E-01  5.83045E-05  2.95800E-16  1.05632E+01  0.00000E+00  1.0E-05
  9.000E-01  6.16838E-05  2.67712E-16  9.56018E+00  0.00000E+00  1.0E-05
  9.250E-01  6.51582E-05  2.42914E-16  8.67461E+00  0.00000E+00  1.0E-05
  9.500E-01  6.87277E-05  2.20929E-16  7.88951E+00  0.00000E+00  1.0E-05
  9.750E-01  7.23925E-05  2.01349E-16  7.19031E+00  0.00000E+00  1.0E-05
  1.000E+00  7.61524E-05  1.83908E-16  6.56748E+00  0.00000E+00  8.2E-06
  1.100E+00  9.21439E-05  1.30498E-16  4.66018E+00  0.00000E+00  6.1E-06
  1.200E+00  1.09658E-04  9.51239E-17  3.39694E+00  0.00000E+00  3.3E-06
  1.300E+00  1.28695E-04  7.09191E-17  2.53257E+00  0.00000E+00  6.7E-07
  1.400E+00  1.49255E-04  5.38835E-17  1.92421E+00  0.00000E+00  1.3E-06
  1.500E+00  1.71338E-04  4.17006E-17  1.48915E+00  0.00000E+00  2.4E-06
  1.600E+00  1.94942E-04  3.27798E-17  1.17059E+00  0.00000E+00  2.5E-06
  1.700E+00  2.20070E-04  2.61192E-17  9.32733E-01  0.00000E+00  2.0E-06
  1.800E+00  2.46720E-04  2.10607E-17  7.52091E-01  0.00000E+00  1.1E-06
  1.900E+00  2.74892E-04  1.71744E-17  6.13310E-01  0.00000E+00  1.8E-07
  2.000E+00  3.04586E-04  1.41478E-17  5.05227E-01  0.00000E+00  5.9E-07
  2.100E+00  3.35803E-04  1.17616E-17  4.20013E-01  0.00000E+00  1.1E-06
  2.200E+00  3.68542E-04  9.85543E-18  3.51944E-01  0.00000E+00  1.1E-06
  2.300E+00  4.02802E-04  8.32209E-18  2.97187E-01  0.00000E+00  9.3E-07
  2.400E+00  4.38585E-04  7.07698E-18  2.52724E-01  0.00000E+00  5.2E-07
  2.500E+00  4.75889E-04  6.05721E-18  2.16307E-01  0.00000E+00  1.0E-07
  2.600E+00  5.14715E-04  5.21426E-18  1.86205E-01  0.00000E+00  3.4E-07
  2.700E+00  5.55063E-04  4.51349E-18  1.61180E-01  0.00000E+00  5.8E-07
  2.800E+00  5.96931E-04  3.92713E-18  1.40240E-01  0.00000E+00  6.3E-07
  2.900E+00  6.40321E-04  3.43337E-18  1.22608E-01  0.00000E+00  5.1E-07
  3.000E+00  6.85233E-04  3.01479E-18  1.07660E-01  0.00000E+00  2.8E-07
  3.100E+00  7.31665E-04  2.65821E-18  9.49266E-02  0.00000E+00  1.0E-07
  3.200E+00  7.79618E-04  2.35305E-18  8.40288E-02  0.00000E+00  2.2E-07
  3.300E+00  8.29092E-04  2.09061E-18  7.46570E-02  0.00000E+00  3.6E-07
  3.400E+00  8.80086E-04  1.86377E-18  6.65566E-02  0.00000E+00  3.8E-07
  3.500E+00  9.32601E-04  1.66688E-18  5.95253E-02  0.00000E+00  3.1E-07
  3.600E+00  9.86636E-04  1.49541E-18  5.34019E-02  0.00000E+00  1.6E-07
  3.700E+00  1.04219E-03  1.34549E-18  4.80484E-02  0.00000E+00  1.0E-07
  3.800E+00  1.09927E-03  1.21393E-18  4.33503E-02  0.00000E+00  1.5E-07
  3.900E+00  1.15786E-03  1.09803E-18  3.92115E-02  0.00000E+00  2.4E-07
  4.000E+00  1.21797E-03  9.95686E-19  3.55566E-02  0.00000E+00  2.6E-07
  4.100E+00  1.27961E-03  9.05025E-19  3.23190E-02  0.00000E+00  2.0E-07
  4.200E+00  1.34276E-03  8.24478E-19  2.94426E-02  0.00000E+00  1.0E-07
  4.300E+00  1.40743E-03  7.52669E-19  2.68783E-02  0.00000E+00  1.0E-07
  4.400E+00  1.47362E-03  6.88534E-19  2.45880E-02  0.00000E+00  1.1E-07
  4.500E+00  1.54133E-03  6.31110E-19  2.25373E-02  0.00000E+00  1.7E-07
  4.600E+00  1.61056E-03  5.79566E-19  2.06967E-02  0.00000E+00  1.8E-07
  4.700E+00  1.68131E-03  5.33170E-19  1.90399E-02  0.00000E+00  1.4E-07
  4.800E+00  1.75357E-03  4.91339E-19  1.75460E-02  0.00000E+00  1.0E-07
  4.900E+00  1.82735E-03  4.53544E-19  1.61964E-02  0.00000E+00  1.0E-07
  5.000E+00  1.90265E-03  4.19328E-19  1.49745E-02  0.00000E+00  1.0E-07
  5.100E+00  1.97947E-03  3.88280E-19  1.38657E-02  0.00000E+00  1.3E-07
  5.200E+00  2.05780E-03  3.60060E-19  1.28580E-02  0.00000E+00  1.3E-07
  5.300E+00  2.13765E-03  3.34368E-19  1.19405E-02  0.00000E+00  1.0E-07
  5.400E+00  2.21902E-03  3.10938E-19  1.11038E-02  0.00000E+00  1.0E-07
  5.500E+00  2.30190E-03  2.89529E-19  1.03393E-02  0.00000E+00  1.0E-07
  5.600E+00  2.38630E-03  2.69936E-19  9.63958E-03  0.00000E+00  1.0E-07
  5.700E+00  2.47222E-03  2.51981E-19  8.99839E-03  0.00000E+00  1.0E-07
  5.800E+00  2.55965E-03  2.35502E-19  8.40992E-03  0.00000E+00  1.0E-07
  5.900E+00  2.64859E-03  2.20353E-19  7.86896E-03  0.00000E+00  1.0E-07
  6.000E+00  2.73905E-03  2.06407E-19  7.37094E-03  0.00000E+00  1.0E-07
  6.100E+00  2.83103E-03  1.93554E-19  6.91193E-03  0.00000E+00  1.0E-07
  6.200E+00  2.92452E-03  1.81691E-19  6.48831E-03  0.00000E+00  1.0E-07
  6.300E+00  3.01952E-03  1.70729E-19  6.09684E-03  0.00000E+00  1.0E-07
  6.400E+00  3.11604E-03  1.60584E-19  5.73455E-03  0.00000E+00  1.0E-07
  6.500E+00  3.21407E-03  1.51186E-19  5.39896E-03  0.00000E+00  1.0E-07
  6.600E+00  3.31362E-03  1.42471E-19  5.08772E-03  0.00000E+00  1.0E-07
  6.700E+00  3.41468E-03  1.34379E-19  4.79875E-03  0.00000E+00  1.0E-07
  6.800E+00  3.51725E-03  1.26856E-19  4.53010E-03  0.00000E+00  1.0E-07
  6.900E+00  3.62133E-03  1.19856E-19  4.28012E-03  0.00000E+00  1.0E-07
  7.000E+00  3.72692E-03  1.13335E-19  4.04728E-03  0.00000E+00  1.0E-07
  7.100E+00  3.83403E-03  1.07256E-19  3.83018E-03  0.00000E+00  1.0E-07
  7.200E+00  3.94265E-03  1.01581E-19  3.62753E-03  0.00000E+00  1.0E-07
  7.300E+00  4.05278E-03  9.62798E-20  3.43821E-03  0.00000E+00  1.0E-07
  7.400E+00  4.16442E-03  9.13226E-20  3.26119E-03  0.00000E+00  1.0E-07
  7.500E+00  4.27757E-03  8.66830E-20  3.09551E-03  0.00000E+00  1.0E-07
  7.600E+00  4.39223E-03  8.23365E-20  2.94029E-03  0.00000E+00  1.0E-07
  7.700E+00  4.50840E-03  7.82613E-20  2.79476E-03  0.00000E+00  1.0E-07
  7.800E+00  4.62608E-03  7.44373E-20  2.65820E-03  0.00000E+00  1.0E-07
  7.900E+00  4.74527E-03  7.08463E-20  2.52997E-03  0.00000E+00  1.0E-07
  8.000E+00  4.86597E-03  6.74711E-20  2.40944E-03  0.00000E+00  1.0E-07
  8.100E+00  4.98817E-03  6.42961E-20  2.29606E-03  0.00000E+00  1.0E-07
  8.200E+00  5.11188E-03  6.13076E-20  2.18933E-03  0.00000E+00  1.0E-07
  8.300E+00  5.23711E-03  5.84924E-20  2.08880E-03  0.00000E+00  1.0E-07
  8.400E+00  5.36383E-03  5.58386E-20  1.99403E-03  0.00000E+00  1.0E-07
  8.500E+00  5.49207E-03  5.33349E-20  1.90462E-03  0.00000E+00  1.0E-07
  8.600E+00  5.62181E-03  5.09714E-20  1.82022E-03  0.00000E+00  1.0E-07
  8.700E+00  5.75306E-03  4.87388E-20  1.74049E-03  0.00000E+00  1.0E-07
  8.800E+00  5.88581E-03  4.66285E-20  1.66513E-03  0.00000E+00  1.0E-07
  8.900E+00  6.02007E-03  4.46322E-20  1.59384E-03  0.00000E+00  1.0E-07
  9.000E+00  6.15583E-03  4.27427E-20  1.52637E-03  0.00000E+00  1.0E-07
  9.100E+00  6.29310E-03  4.09534E-20  1.46247E-03  0.00000E+00  1.0E-07
  9.200E+00  6.43187E-03  3.92578E-20  1.40192E-03  0.00000E+00  1.0E-07
  9.300E+00  6.57214E-03  3.76500E-20  1.34450E-03  0.00000E+00  1.0E-07
  9.400E+00  6.71392E-03  3.61245E-20  1.29003E-03  0.00000E+00  1.0E-07
  9.500E+00  6.85720E-03  3.46765E-20  1.23832E-03  0.00000E+00  1.0E-07
  9.600E+00  7.00198E-03  3.33013E-20  1.18921E-03  0.00000E+00  1.0E-07
  9.700E+00  7.14827E-03  3.19943E-20  1.14254E-03  0.00000E+00  1.0E-07
  9.800E+00  7.29605E-03  3.07515E-20  1.09816E-03  0.00000E+00  1.0E-07
  9.900E+00  7.44534E-03  2.95693E-20  1.05594E-03  0.00000E+00  1.0E-07
  1.000E+01  7.59612E-03  2.84441E-20  1.01576E-03  0.00000E+00  1.0E-07
  1.025E+01  7.97965E-03  2.58593E-20  9.23454E-04  0.00000E+00  1.0E-07
  1.050E+01  8.37255E-03  2.35652E-20  8.41528E-04  0.00000E+00  1.0E-07
  1.075E+01  8.77480E-03  2.15230E-20  7.68602E-04  0.00000E+00  1.0E-07
  1.100E+01  9.18641E-03  1.97003E-20  7.03510E-04  0.00000E+00  1.0E-07
  1.125E+01  9.60736E-03  1.80691E-20  6.45258E-04  0.00000E+00  1.0E-07
  1.150E+01  1.00376E-02  1.66056E-20  5.92997E-04  0.00000E+00  1.0E-07
  1.175E+01  1.04773E-02  1.52895E-20  5.45996E-04  0.00000E+00  1.0E-07
  1.200E+01  1.09262E-02  1.41031E-20  5.03631E-04  0.00000E+00  1.0E-07
  1.225E+01  1.13844E-02  1.30314E-20  4.65358E-04  0.00000E+00  1.0E-07
  1.250E+01  1.18520E-02  1.20611E-20  4.30711E-04  0.00000E+00  1.0E-07
  1.275E+01  1.23288E-02  1.11810E-20  3.99280E-04  0.00000E+00  1.0E-07
  1.300E+01  1.28150E-02  1.03810E-20  3.70713E-04  0.00000E+00  1.0E-07
  1.325E+01  1.33104E-02  9.65252E-21  3.44698E-04  0.00000E+00  1.0E-07
  1.350E+01  1.38150E-02  8.98802E-21  3.20968E-04  0.00000E+00  1.0E-07
  1.375E+01  1.43290E-02  8.38073E-21  2.99281E-04  0.00000E+00  1.0E-07
  1.400E+01  1.48521E-02  7.82481E-21  2.79429E-04  0.00000E+00  1.0E-07
  1.425E+01  1.53845E-02  7.31513E-21  2.61228E-04  0.00000E+00  1.0E-07
  1.450E+01  1.59262E-02  6.84711E-21  2.44515E-04  0.00000E+00  1.0E-07
  1.475E+01  1.64770E-02  6.41666E-21  2.29143E-04  0.00000E+00  1.0E-07
  1.500E+01  1.70371E-02  6.02019E-21  2.14985E-04  0.00000E+00  1.0E-07
  1.525E+01  1.76063E-02  5.65453E-21  2.01927E-04  0.00000E+00  1.0E-07
