 #
 # Subroutine ELSEPA. Elastic scattering of electrons and positrons
 #                    by neutral atoms and positive ions
 #
 # Projectile: electron
 # Kinetic energy = 3.70000E+06 eV = 1.35973E+05 a.u.
 #
 # WARNING: High-energy factorization with free-atom DF screening.
 #          Absorption, polarization and exchange corrections are
 #          switched off.
 #          Phase shifts are calculated for the bare nucleus.
 #          Scattering amplitudes are not evaluated.
 #
 # Element: Hg,  Z =  80,  atomic weight = 2.00590E+02 g/mol
 #
 # Nuclear model: Fermi distribution
 #                Average radius = 6.26355E-13 cm
 #                Skin thickness = 5.46000E-14 cm
 #
 # Number of electrons = 80
 #
 # Total elastic cross section = 8.02171E-18 cm**2 = 2.86460E-01 a0**2
 # 1st transport cross section = 5.94228E-22 cm**2 = 2.12203E-05 a0**2
 # 2nd transport cross section = 1.58219E-21 cm**2 = 5.65009E-05 a0**2
 #
 #
 # Differential cross section:                       MU=(1-COS(THETA))/2
 #
 #  THETA        MU          DCS          DCS        Sherman      error
 #  (deg)                 (cm**2/sr)   (a0**2/sr)    function
 #----------------------------------------------------------------------
  0.000E+00  0.00000E+00  7.53839E-13  2.69201E+04  0.00000E+00  1.0E-05
  1.000E-04  7.61557E-13  7.53837E-13  2.69200E+04  0.00000E+00  1.0E-05
  1.250E-04  1.18994E-12  7.53836E-13  2.69200E+04  0.00000E+00  1.0E-05
  1.500E-04  1.71346E-12  7.53834E-13  2.69199E+04  0.00000E+00  1.0E-05
  1.750E-04  2.33225E-12  7.53832E-13  2.69198E+04  0.00000E+00  1.0E-05
  2.000E-04  3.04617E-12  7.53831E-13  2.69198E+04  0.00000E+00  1.0E-05
  2.250E-04  3.85530E-12  7.53828E-13  2.69197E+04  0.00000E+00  1.0E-05
  2.500E-04  4.75964E-12  7.53826E-13  2.69196E+04  0.00000E+00  1.0E-05
  2.750E-04  5.75917E-12  7.53823E-13  2.69195E+04  0.00000E+00  1.0E-05
  3.000E-04  6.85391E-12  7.53820E-13  2.69194E+04  0.00000E+00  1.0E-05
  3.250E-04  8.04379E-12  7.53817E-13  2.69193E+04  0.00000E+00  1.0E-05
  3.500E-04  9.32893E-12  7.53813E-13  2.69192E+04  0.00000E+00  1.0E-05
  3.750E-04  1.07092E-11  7.53809E-13  2.69190E+04  0.00000E+00  1.0E-05
  4.000E-04  1.21847E-11  7.53805E-13  2.69189E+04  0.00000E+00  1.0E-05
  4.250E-04  1.37554E-11  7.53801E-13  2.69187E+04  0.00000E+00  1.0E-05
  4.500E-04  1.54213E-11  7.53796E-13  2.69186E+04  0.00000E+00  1.0E-05
  4.750E-04  1.71823E-11  7.53791E-13  2.69184E+04  0.00000E+00  1.0E-05
  5.000E-04  1.90386E-11  7.53786E-13  2.69182E+04  0.00000E+00  1.0E-05
  5.250E-04  2.09900E-11  7.53781E-13  2.69180E+04  0.00000E+00  1.0E-05
  5.500E-04  2.30367E-11  7.53775E-13  2.69178E+04  0.00000E+00  1.0E-05
  5.750E-04  2.51785E-11  7.53769E-13  2.69176E+04  0.00000E+00  1.0E-05
  6.000E-04  2.74156E-11  7.53763E-13  2.69174E+04  0.00000E+00  1.0E-05
  6.250E-04  2.97478E-11  7.53757E-13  2.69171E+04  0.00000E+00  1.0E-05
  6.500E-04  3.21752E-11  7.53750E-13  2.69169E+04  0.00000E+00  1.0E-05
  6.750E-04  3.46979E-11  7.53743E-13  2.69167E+04  0.00000E+00  1.0E-05
  7.000E-04  3.73157E-11  7.53736E-13  2.69164E+04  0.00000E+00  1.0E-05
  7.250E-04  4.00286E-11  7.53728E-13  2.69161E+04  0.00000E+00  1.0E-05
  7.500E-04  4.28368E-11  7.53720E-13  2.69158E+04  0.00000E+00  1.0E-05
  7.750E-04  4.57402E-11  7.53712E-13  2.69156E+04  0.00000E+00  1.0E-05
  8.000E-04  4.87388E-11  7.53704E-13  2.69153E+04  0.00000E+00  1.0E-05
  8.250E-04  5.18325E-11  7.53696E-13  2.69150E+04  0.00000E+00  1.0E-05
  8.500E-04  5.50215E-11  7.53687E-13  2.69146E+04  0.00000E+00  1.0E-05
  8.750E-04  5.83057E-11  7.53678E-13  2.69143E+04  0.00000E+00  1.0E-05
  9.000E-04  6.16850E-11  7.53668E-13  2.69140E+04  0.00000E+00  1.0E-05
  9.250E-04  6.51595E-11  7.53659E-13  2.69136E+04  0.00000E+00  1.0E-05
  9.500E-04  6.87293E-11  7.53649E-13  2.69133E+04  0.00000E+00  1.0E-05
  9.750E-04  7.23943E-11  7.53638E-13  2.69129E+04  0.00000E+00  1.0E-05
  1.000E-03  7.61544E-11  7.53628E-13  2.69125E+04  0.00000E+00  1.0E-05
  1.250E-03  1.18991E-10  7.53509E-13  2.69083E+04  0.00000E+00  1.0E-05
  1.500E-03  1.71347E-10  7.53364E-13  2.69031E+04  0.00000E+00  1.0E-05
  1.750E-03  2.33223E-10  7.53192E-13  2.68970E+04  0.00000E+00  1.0E-05
  2.000E-03  3.04617E-10  7.52994E-13  2.68899E+04  0.00000E+00  1.0E-05
  2.250E-03  3.85531E-10  7.52770E-13  2.68819E+04  0.00000E+00  1.0E-05
  2.500E-03  4.75965E-10  7.52519E-13  2.68729E+04  0.00000E+00  1.0E-05
  2.750E-03  5.75917E-10  7.52242E-13  2.68630E+04  0.00000E+00  1.0E-05
  3.000E-03  6.85389E-10  7.51939E-13  2.68522E+04  0.00000E+00  1.0E-05
  3.250E-03  8.04380E-10  7.51609E-13  2.68405E+04  0.00000E+00  1.0E-05
  3.500E-03  9.32891E-10  7.51254E-13  2.68278E+04  0.00000E+00  1.0E-05
  3.750E-03  1.07092E-09  7.50873E-13  2.68141E+04  0.00000E+00  1.0E-05
  4.000E-03  1.21847E-09  7.50465E-13  2.67996E+04  0.00000E+00  1.0E-05
  4.250E-03  1.37554E-09  7.50032E-13  2.67841E+04  0.00000E+00  1.0E-05
  4.500E-03  1.54213E-09  7.49573E-13  2.67677E+04  0.00000E+00  1.0E-05
  4.750E-03  1.71823E-09  7.49088E-13  2.67504E+04  0.00000E+00  1.0E-05
  5.000E-03  1.90386E-09  7.48578E-13  2.67322E+04  0.00000E+00  1.0E-05
  5.250E-03  2.09900E-09  7.48042E-13  2.67131E+04  0.00000E+00  1.0E-05
  5.500E-03  2.30367E-09  7.47481E-13  2.66930E+04  0.00000E+00  1.0E-05
  5.750E-03  2.51785E-09  7.46894E-13  2.66721E+04  0.00000E+00  1.0E-05
  6.000E-03  2.74156E-09  7.46282E-13  2.66502E+04  0.00000E+00  1.0E-05
  6.250E-03  2.97478E-09  7.45646E-13  2.66275E+04  0.00000E+00  1.0E-05
  6.500E-03  3.21752E-09  7.44984E-13  2.66039E+04  0.00000E+00  1.0E-05
  6.750E-03  3.46978E-09  7.44297E-13  2.65793E+04  0.00000E+00  1.0E-05
  7.000E-03  3.73156E-09  7.43586E-13  2.65539E+04  0.00000E+00  1.0E-05
  7.250E-03  4.00286E-09  7.42850E-13  2.65276E+04  0.00000E+00  1.0E-05
  7.500E-03  4.28368E-09  7.42089E-13  2.65005E+04  0.00000E+00  1.0E-05
  7.750E-03  4.57402E-09  7.41304E-13  2.64725E+04  0.00000E+00  1.0E-05
  8.000E-03  4.87388E-09  7.40495E-13  2.64436E+04  0.00000E+00  1.0E-05
  8.250E-03  5.18326E-09  7.39663E-13  2.64138E+04  0.00000E+00  1.0E-05
  8.500E-03  5.50215E-09  7.38806E-13  2.63832E+04  0.00000E+00  1.0E-05
  8.750E-03  5.83057E-09  7.37925E-13  2.63518E+04  0.00000E+00  1.0E-05
  9.000E-03  6.16850E-09  7.37021E-13  2.63195E+04  0.00000E+00  1.0E-05
  9.250E-03  6.51596E-09  7.36093E-13  2.62864E+04  0.00000E+00  1.0E-05
  9.500E-03  6.87293E-09  7.35143E-13  2.62524E+04  0.00000E+00  1.0E-05
  9.750E-03  7.23942E-09  7.34169E-13  2.62176E+04  0.00000E+00  1.0E-05
  1.000E-02  7.61544E-09  7.33172E-13  2.61820E+04  0.00000E+00  1.0E-05
  1.250E-02  1.18991E-08  7.21986E-13  2.57826E+04  0.00000E+00  1.0E-05
  1.500E-02  1.71347E-08  7.08645E-13  2.53062E+04  0.00000E+00  1.0E-05
  1.750E-02  2.33223E-08  6.93511E-13  2.47657E+04  0.00000E+00  1.0E-05
  2.000E-02  3.04617E-08  6.76824E-13  2.41698E+04  0.00000E+00  1.0E-05
  2.250E-02  3.85531E-08  6.58692E-13  2.35223E+04  0.00000E+00  1.0E-05
  2.500E-02  4.75965E-08  6.39384E-13  2.28328E+04  0.00000E+00  1.0E-05
  2.750E-02  5.75917E-08  6.19267E-13  2.21144E+04  0.00000E+00  1.0E-05
  3.000E-02  6.85389E-08  5.98596E-13  2.13763E+04  0.00000E+00  1.0E-05
  3.250E-02  8.04380E-08  5.77457E-13  2.06214E+04  0.00000E+00  1.0E-05
  3.500E-02  9.32891E-08  5.55974E-13  1.98542E+04  0.00000E+00  1.0E-05
  3.750E-02  1.07092E-07  5.34537E-13  1.90887E+04  0.00000E+00  1.0E-05
  4.000E-02  1.21847E-07  5.13310E-13  1.83306E+04  0.00000E+00  1.0E-05
  4.250E-02  1.37554E-07  4.92350E-13  1.75821E+04  0.00000E+00  1.0E-05
  4.500E-02  1.54213E-07  4.71572E-13  1.68401E+04  0.00000E+00  1.0E-05
  4.750E-02  1.71823E-07  4.51346E-13  1.61179E+04  0.00000E+00  1.0E-05
  5.000E-02  1.90386E-07  4.31740E-13  1.54177E+04  0.00000E+00  1.0E-05
  5.250E-02  2.09900E-07  4.12796E-13  1.47412E+04  0.00000E+00  1.0E-05
  5.500E-02  2.30367E-07  3.94272E-13  1.40797E+04  0.00000E+00  1.0E-05
  5.750E-02  2.51785E-07  3.76495E-13  1.34449E+04  0.00000E+00  1.0E-05
  6.000E-02  2.74156E-07  3.59470E-13  1.28369E+04  0.00000E+00  1.0E-05
  6.250E-02  2.97478E-07  3.43193E-13  1.22557E+04  0.00000E+00  1.0E-05
  6.500E-02  3.21752E-07  3.27475E-13  1.16943E+04  0.00000E+00  1.0E-05
  6.750E-02  3.46978E-07  3.12465E-13  1.11583E+04  0.00000E+00  1.0E-05
  7.000E-02  3.73156E-07  2.98183E-13  1.06483E+04  0.00000E+00  1.0E-05
  7.250E-02  4.00286E-07  2.84603E-13  1.01633E+04  0.00000E+00  1.0E-05
  7.500E-02  4.28368E-07  2.71593E-13  9.69877E+03  0.00000E+00  1.0E-05
  7.750E-02  4.57402E-07  2.59185E-13  9.25567E+03  0.00000E+00  1.0E-05
  8.000E-02  4.87388E-07  2.47414E-13  8.83533E+03  0.00000E+00  1.0E-05
  8.250E-02  5.18325E-07  2.36249E-13  8.43662E+03  0.00000E+00  1.0E-05
  8.500E-02  5.50215E-07  2.25606E-13  8.05653E+03  0.00000E+00  1.0E-05
  8.750E-02  5.83057E-07  2.15447E-13  7.69377E+03  0.00000E+00  1.0E-05
  9.000E-02  6.16850E-07  2.05821E-13  7.34999E+03  0.00000E+00  1.0E-05
  9.250E-02  6.51596E-07  1.96696E-13  7.02413E+03  0.00000E+00  1.0E-05
  9.500E-02  6.87293E-07  1.88022E-13  6.71440E+03  0.00000E+00  1.0E-05
  9.750E-02  7.23942E-07  1.79731E-13  6.41831E+03  0.00000E+00  1.0E-05
  1.000E-01  7.61543E-07  1.71873E-13  6.13770E+03  0.00000E+00  1.0E-05
  1.250E-01  1.18991E-06  1.11733E-13  3.99005E+03  0.00000E+00  1.0E-05
  1.500E-01  1.71347E-06  7.38328E-14  2.63662E+03  0.00000E+00  1.0E-05
  1.750E-01  2.33223E-06  5.11945E-14  1.82819E+03  0.00000E+00  1.0E-05
  2.000E-01  3.04617E-06  3.65556E-14  1.30542E+03  0.00000E+00  1.0E-05
  2.250E-01  3.85531E-06  2.66353E-14  9.51164E+02  0.00000E+00  1.0E-05
  2.500E-01  4.75964E-06  1.98836E-14  7.10058E+02  0.00000E+00  1.0E-05
  2.750E-01  5.75916E-06  1.52025E-14  5.42892E+02  0.00000E+00  1.0E-05
  3.000E-01  6.85388E-06  1.18576E-14  4.23441E+02  0.00000E+00  1.0E-05
  3.250E-01  8.04378E-06  9.38852E-15  3.35270E+02  0.00000E+00  1.0E-05
  3.500E-01  9.32888E-06  7.52596E-15  2.68757E+02  0.00000E+00  1.0E-05
  3.750E-01  1.07092E-05  6.11064E-15  2.18215E+02  0.00000E+00  1.0E-05
  4.000E-01  1.21846E-05  5.01506E-15  1.79091E+02  0.00000E+00  1.0E-05
  4.250E-01  1.37553E-05  4.15088E-15  1.48231E+02  0.00000E+00  1.0E-05
  4.500E-01  1.54212E-05  3.45629E-15  1.23426E+02  0.00000E+00  1.0E-05
  4.750E-01  1.71822E-05  2.90009E-15  1.03564E+02  0.00000E+00  1.0E-05
  5.000E-01  1.90385E-05  2.44861E-15  8.74415E+01  0.00000E+00  1.0E-05
  5.250E-01  2.09899E-05  2.08295E-15  7.43836E+01  0.00000E+00  1.0E-05
  5.500E-01  2.30365E-05  1.77921E-15  6.35368E+01  0.00000E+00  1.0E-05
  5.750E-01  2.51783E-05  1.52824E-15  5.45745E+01  0.00000E+00  1.0E-05
  6.000E-01  2.74153E-05  1.31950E-15  4.71204E+01  0.00000E+00  1.0E-05
  6.250E-01  2.97475E-05  1.14502E-15  4.08893E+01  0.00000E+00  1.0E-05
  6.500E-01  3.21749E-05  9.98348E-16  3.56517E+01  0.00000E+00  1.0E-05
  6.750E-01  3.46974E-05  8.74062E-16  3.12133E+01  0.00000E+00  1.0E-05
  7.000E-01  3.73152E-05  7.68744E-16  2.74524E+01  0.00000E+00  1.0E-05
  7.250E-01  4.00281E-05  6.79213E-16  2.42551E+01  0.00000E+00  1.0E-05
  7.500E-01  4.28362E-05  6.02575E-16  2.15184E+01  0.00000E+00  1.0E-05
  7.750E-01  4.57395E-05  5.36679E-16  1.91651E+01  0.00000E+00  1.0E-05
  8.000E-01  4.87380E-05  4.79757E-16  1.71324E+01  0.00000E+00  1.0E-05
  8.250E-01  5.18317E-05  4.30336E-16  1.53676E+01  0.00000E+00  1.0E-05
  8.500E-01  5.50205E-05  3.87176E-16  1.38263E+01  0.00000E+00  1.0E-05
  8.750E-01  5.83045E-05  3.49310E-16  1.24741E+01  0.00000E+00  1.0E-05
  9.000E-01  6.16838E-05  3.16032E-16  1.12857E+01  0.00000E+00  1.0E-05
  9.250E-01  6.51582E-05  2.86685E-16  1.02377E+01  0.00000E+00  1.0E-05
  9.500E-01  6.87277E-05  2.60698E-16  9.30969E+00  0.00000E+00  1.0E-05
  9.750E-01  7.23925E-05  2.37585E-16  8.48433E+00  0.00000E+00  1.0E-05
  1.000E+00  7.61524E-05  2.17014E-16  7.74972E+00  0.00000E+00  9.5E-06
  1.100E+00  9.21439E-05  1.54146E-16  5.50465E+00  0.00000E+00  7.2E-06
  1.200E+00  1.09658E-04  1.12575E-16  4.02012E+00  0.00000E+00  3.9E-06
  1.300E+00  1.28695E-04  8.41245E-17  3.00414E+00  0.00000E+00  8.1E-07
  1.400E+00  1.49255E-04  6.40750E-17  2.28816E+00  0.00000E+00  1.5E-06
  1.500E+00  1.71338E-04  4.97079E-17  1.77510E+00  0.00000E+00  2.8E-06
  1.600E+00  1.94942E-04  3.91660E-17  1.39864E+00  0.00000E+00  3.0E-06
  1.700E+00  2.20070E-04  3.12762E-17  1.11689E+00  0.00000E+00  2.4E-06
  1.800E+00  2.46720E-04  2.52664E-17  9.02281E-01  0.00000E+00  1.3E-06
  1.900E+00  2.74892E-04  2.06391E-17  7.37036E-01  0.00000E+00  2.3E-07
  2.000E+00  3.04586E-04  1.70270E-17  6.08047E-01  0.00000E+00  6.8E-07
  2.100E+00  3.35803E-04  1.41732E-17  5.06133E-01  0.00000E+00  1.2E-06
  2.200E+00  3.68542E-04  1.18877E-17  4.24518E-01  0.00000E+00  1.3E-06
  2.300E+00  4.02802E-04  1.00464E-17  3.58762E-01  0.00000E+00  1.1E-06
  2.400E+00  4.38585E-04  8.54900E-18  3.05290E-01  0.00000E+00  6.1E-07
  2.500E+00  4.75889E-04  7.32103E-18  2.61439E-01  0.00000E+00  1.0E-07
  2.600E+00  5.14715E-04  6.30481E-18  2.25149E-01  0.00000E+00  3.9E-07
  2.700E+00  5.55063E-04  5.45932E-18  1.94956E-01  0.00000E+00  6.7E-07
  2.800E+00  5.96931E-04  4.75148E-18  1.69678E-01  0.00000E+00  7.3E-07
  2.900E+00  6.40321E-04  4.15516E-18  1.48384E-01  0.00000E+00  6.0E-07
  3.000E+00  6.85233E-04  3.64945E-18  1.30324E-01  0.00000E+00  3.3E-07
  3.100E+00  7.31665E-04  3.21856E-18  1.14937E-01  0.00000E+00  1.0E-07
  3.200E+00  7.79618E-04  2.84974E-18  1.01766E-01  0.00000E+00  2.5E-07
  3.300E+00  8.29092E-04  2.53254E-18  9.04386E-02  0.00000E+00  4.2E-07
  3.400E+00  8.80086E-04  2.25833E-18  8.06466E-02  0.00000E+00  4.5E-07
  3.500E+00  9.32601E-04  2.02032E-18  7.21468E-02  0.00000E+00  3.6E-07
  3.600E+00  9.86636E-04  1.81301E-18  6.47438E-02  0.00000E+00  1.9E-07
  3.700E+00  1.04219E-03  1.63175E-18  5.82708E-02  0.00000E+00  1.0E-07
  3.800E+00  1.09927E-03  1.47266E-18  5.25897E-02  0.00000E+00  1.8E-07
  3.900E+00  1.15786E-03  1.33249E-18  4.75842E-02  0.00000E+00  2.8E-07
  4.000E+00  1.21797E-03  1.20869E-18  4.31631E-02  0.00000E+00  3.0E-07
  4.100E+00  1.27961E-03  1.09900E-18  3.92460E-02  0.00000E+00  2.4E-07
  4.200E+00  1.34276E-03  1.00153E-18  3.57651E-02  0.00000E+00  1.2E-07
  4.300E+00  1.40743E-03  9.14599E-19  3.26609E-02  0.00000E+00  1.0E-07
  4.400E+00  1.47362E-03  8.36941E-19  2.98877E-02  0.00000E+00  1.3E-07
  4.500E+00  1.54133E-03  7.67388E-19  2.74039E-02  0.00000E+00  2.0E-07
  4.600E+00  1.61056E-03  7.04937E-19  2.51738E-02  0.00000E+00  2.1E-07
  4.700E+00  1.68131E-03  6.48701E-19  2.31655E-02  0.00000E+00  1.6E-07
  4.800E+00  1.75357E-03  5.97980E-19  2.13543E-02  0.00000E+00  1.0E-07
  4.900E+00  1.82735E-03  5.52139E-19  1.97172E-02  0.00000E+00  1.0E-07
  5.000E+00  1.90265E-03  5.10622E-19  1.82347E-02  0.00000E+00  1.0E-07
  5.100E+00  1.97947E-03  4.72935E-19  1.68888E-02  0.00000E+00  1.5E-07
  5.200E+00  2.05780E-03  4.38667E-19  1.56651E-02  0.00000E+00  1.5E-07
  5.300E+00  2.13765E-03  4.07458E-19  1.45506E-02  0.00000E+00  1.2E-07
  5.400E+00  2.21902E-03  3.78987E-19  1.35339E-02  0.00000E+00  1.0E-07
  5.500E+00  2.30190E-03  3.52963E-19  1.26045E-02  0.00000E+00  1.0E-07
  5.600E+00  2.38630E-03  3.29136E-19  1.17537E-02  0.00000E+00  1.0E-07
  5.700E+00  2.47222E-03  3.07296E-19  1.09737E-02  0.00000E+00  1.1E-07
  5.800E+00  2.55965E-03  2.87244E-19  1.02577E-02  0.00000E+00  1.2E-07
  5.900E+00  2.64859E-03  2.68806E-19  9.59925E-03  0.00000E+00  1.0E-07
  6.000E+00  2.73905E-03  2.51826E-19  8.99287E-03  0.00000E+00  1.0E-07
  6.100E+00  2.83103E-03  2.36172E-19  8.43384E-03  0.00000E+00  1.0E-07
  6.200E+00  2.92452E-03  2.21721E-19  7.91779E-03  0.00000E+00  1.0E-07
  6.300E+00  3.01952E-03  2.08363E-19  7.44078E-03  0.00000E+00  1.0E-07
  6.400E+00  3.11604E-03  1.95998E-19  6.99921E-03  0.00000E+00  1.0E-07
  6.500E+00  3.21407E-03  1.84541E-19  6.59008E-03  0.00000E+00  1.0E-07
  6.600E+00  3.31362E-03  1.73914E-19  6.21058E-03  0.00000E+00  1.0E-07
  6.700E+00  3.41468E-03  1.64045E-19  5.85816E-03  0.00000E+00  1.0E-07
  6.800E+00  3.51725E-03  1.54868E-19  5.53044E-03  0.00000E+00  1.0E-07
  6.900E+00  3.62133E-03  1.46328E-19  5.22546E-03  0.00000E+00  1.0E-07
  7.000E+00  3.72692E-03  1.38372E-19  4.94134E-03  0.00000E+00  1.0E-07
  7.100E+00  3.83403E-03  1.30953E-19  4.67640E-03  0.00000E+00  1.0E-07
  7.200E+00  3.94265E-03  1.24026E-19  4.42905E-03  0.00000E+00  1.0E-07
  7.300E+00  4.05278E-03  1.17554E-19  4.19794E-03  0.00000E+00  1.0E-07
  7.400E+00  4.16442E-03  1.11502E-19  3.98182E-03  0.00000E+00  1.0E-07
  7.500E+00  4.27757E-03  1.05838E-19  3.77953E-03  0.00000E+00  1.0E-07
  7.600E+00  4.39223E-03  1.00530E-19  3.59000E-03  0.00000E+00  1.0E-07
  7.700E+00  4.50840E-03  9.55535E-20  3.41228E-03  0.00000E+00  1.0E-07
  7.800E+00  4.62608E-03  9.08834E-20  3.24551E-03  0.00000E+00  1.0E-07
  7.900E+00  4.74527E-03  8.64975E-20  3.08888E-03  0.00000E+00  1.0E-07
  8.000E+00  4.86597E-03  8.23750E-20  2.94167E-03  0.00000E+00  1.0E-07
  8.100E+00  4.98817E-03  7.84968E-20  2.80317E-03  0.00000E+00  1.0E-07
  8.200E+00  5.11188E-03  7.48463E-20  2.67281E-03  0.00000E+00  1.0E-07
  8.300E+00  5.23711E-03  7.14074E-20  2.55001E-03  0.00000E+00  1.0E-07
  8.400E+00  5.36383E-03  6.81656E-20  2.43424E-03  0.00000E+00  1.0E-07
  8.500E+00  5.49207E-03  6.51070E-20  2.32501E-03  0.00000E+00  1.0E-07
  8.600E+00  5.62181E-03  6.22197E-20  2.22191E-03  0.00000E+00  1.0E-07
  8.700E+00  5.75306E-03  5.94923E-20  2.12451E-03  0.00000E+00  1.0E-07
  8.800E+00  5.88581E-03  5.69142E-20  2.03244E-03  0.00000E+00  1.0E-07
  8.900E+00  6.02007E-03  5.44755E-20  1.94535E-03  0.00000E+00  1.0E-07
  9.000E+00  6.15583E-03  5.21673E-20  1.86293E-03  0.00000E+00  1.0E-07
  9.100E+00  6.29310E-03  4.99814E-20  1.78487E-03  0.00000E+00  1.0E-07
  9.200E+00  6.43187E-03  4.79101E-20  1.71090E-03  0.00000E+00  1.0E-07
  9.300E+00  6.57214E-03  4.59460E-20  1.64076E-03  0.00000E+00  1.0E-07
  9.400E+00  6.71392E-03  4.40826E-20  1.57422E-03  0.00000E+00  1.0E-07
  9.500E+00  6.85720E-03  4.23139E-20  1.51106E-03  0.00000E+00  1.0E-07
  9.600E+00  7.00198E-03  4.06341E-20  1.45107E-03  0.00000E+00  1.0E-07
  9.700E+00  7.14827E-03  3.90376E-20  1.39406E-03  0.00000E+00  1.0E-07
  9.800E+00  7.29605E-03  3.75198E-20  1.33985E-03  0.00000E+00  1.0E-07
  9.900E+00  7.44534E-03  3.60759E-20  1.28829E-03  0.00000E+00  1.0E-07
  1.000E+01  7.59612E-03  3.47017E-20  1.23922E-03  0.00000E+00  1.0E-07
  1.025E+01  7.97965E-03  3.15452E-20  1.12650E-03  0.00000E+00  1.0E-07
  1.050E+01  8.37255E-03  2.87439E-20  1.02646E-03  0.00000E+00  1.0E-07
  1.075E+01  8.77480E-03  2.62506E-20  9.37426E-04  0.00000E+00  1.0E-07
  1.100E+01  9.18641E-03  2.40255E-20  8.57965E-04  0.00000E+00  1.0E-07
  1.125E+01  9.60736E-03  2.20344E-20  7.86863E-04  0.00000E+00  1.0E-07
  1.150E+01  1.00376E-02  2.02484E-20  7.23082E-04  0.00000E+00  1.0E-07
  1.175E+01  1.04773E-02  1.86423E-20  6.65730E-04  0.00000E+00  1.0E-07
  1.200E+01  1.09262E-02  1.71949E-20  6.14041E-04  0.00000E+00  1.0E-07
  1.225E+01  1.13844E-02  1.58875E-20  5.67353E-04  0.00000E+00  1.0E-07
  1.250E+01  1.18520E-02  1.47041E-20  5.25092E-04  0.00000E+00  1.0E-07
  1.275E+01  1.23288E-02  1.36307E-20  4.86762E-04  0.00000E+00  1.0E-07
  1.300E+01  1.28150E-02  1.26553E-20  4.51927E-04  0.00000E+00  1.0E-07
  1.325E+01  1.33104E-02  1.17670E-20  4.20209E-04  0.00000E+00  1.0E-07
  1.350E+01  1.38150E-02  1.09570E-20  3.91281E-04  0.00000E+00  1.0E-07
  1.375E+01  1.43290E-02  1.02168E-20  3.64847E-04  0.00000E+00  1.0E-07
  1.400E+01  1.48521E-02  9.53925E-21  3.40653E-04  0.00000E+00  1.0E-07
  1.425E+01  1.53845E-02  8.91817E-21  3.18474E-04  0.00000E+00  1.0E-07
  1.450E+01  1.59262E-02  8.34792E-21  2.98110E-04  0.00000E+00  1.0E-07
  1.475E+01  1.64770E-02  7.82352E-21  2.79383E-04  0.00000E+00  1.0E-07
  1.500E+01  1.70371E-02  7.34056E-21  2.62136E-04  0.00000E+00  1.0E-07
  1.525E+01  1.76063E-02  6.89519E-21  2.46232E-04  0.00000E+00  1.0E-07
