 #
 # Subroutine ELSEPA. Elastic scattering of electrons and positrons
 #                    by neutral atoms and positive ions
 #
 # Projectile: electron
 # Kinetic energy = 3.70000E+06 eV = 1.35973E+05 a.u.
 #
 # WARNING: High-energy factorization with free-atom DF screening.
 #          Absorption, polarization and exchange corrections are
 #          switched off.
 #          Phase shifts are calculated for the bare nucleus.
 #          Scattering amplitudes are not evaluated.
 #
 # Element: Ho,  Z =  67,  atomic weight = 1.64930E+02 g/mol
 #
 # Nuclear model: Fermi distribution
 #                Average radius = 5.86792E-13 cm
 #                Skin thickness = 5.46000E-14 cm
 #
 # Number of electrons = 67
 #
 # Total elastic cross section = 7.20109E-18 cm**2 = 2.57156E-01 a0**2
 # 1st transport cross section = 4.07556E-22 cm**2 = 1.45541E-05 a0**2
 # 2nd transport cross section = 1.10836E-21 cm**2 = 3.95802E-05 a0**2
 #
 #
 # Differential cross section:                       MU=(1-COS(THETA))/2
 #
 #  THETA        MU          DCS          DCS        Sherman      error
 #  (deg)                 (cm**2/sr)   (a0**2/sr)    function
 #----------------------------------------------------------------------
  0.000E+00  0.00000E+00  1.33409E-12  4.76411E+04  0.00000E+00  1.0E-05
  1.000E-04  7.61557E-13  1.33408E-12  4.76408E+04  0.00000E+00  1.0E-05
  1.250E-04  1.18994E-12  1.33407E-12  4.76406E+04  0.00000E+00  1.0E-05
  1.500E-04  1.71346E-12  1.33406E-12  4.76403E+04  0.00000E+00  1.0E-05
  1.750E-04  2.33225E-12  1.33406E-12  4.76400E+04  0.00000E+00  1.0E-05
  2.000E-04  3.04617E-12  1.33405E-12  4.76396E+04  0.00000E+00  1.0E-05
  2.250E-04  3.85530E-12  1.33403E-12  4.76392E+04  0.00000E+00  1.0E-05
  2.500E-04  4.75964E-12  1.33402E-12  4.76388E+04  0.00000E+00  1.0E-05
  2.750E-04  5.75917E-12  1.33401E-12  4.76383E+04  0.00000E+00  1.0E-05
  3.000E-04  6.85391E-12  1.33399E-12  4.76377E+04  0.00000E+00  1.0E-05
  3.250E-04  8.04379E-12  1.33398E-12  4.76371E+04  0.00000E+00  1.0E-05
  3.500E-04  9.32893E-12  1.33396E-12  4.76365E+04  0.00000E+00  1.0E-05
  3.750E-04  1.07092E-11  1.33394E-12  4.76358E+04  0.00000E+00  1.0E-05
  4.000E-04  1.21847E-11  1.33392E-12  4.76351E+04  0.00000E+00  1.0E-05
  4.250E-04  1.37554E-11  1.33390E-12  4.76343E+04  0.00000E+00  1.0E-05
  4.500E-04  1.54213E-11  1.33387E-12  4.76334E+04  0.00000E+00  1.0E-05
  4.750E-04  1.71823E-11  1.33385E-12  4.76326E+04  0.00000E+00  1.0E-05
  5.000E-04  1.90386E-11  1.33382E-12  4.76316E+04  0.00000E+00  1.0E-05
  5.250E-04  2.09900E-11  1.33379E-12  4.76307E+04  0.00000E+00  1.0E-05
  5.500E-04  2.30367E-11  1.33377E-12  4.76296E+04  0.00000E+00  1.0E-05
  5.750E-04  2.51785E-11  1.33374E-12  4.76286E+04  0.00000E+00  1.0E-05
  6.000E-04  2.74156E-11  1.33370E-12  4.76274E+04  0.00000E+00  1.0E-05
  6.250E-04  2.97478E-11  1.33367E-12  4.76263E+04  0.00000E+00  1.0E-05
  6.500E-04  3.21752E-11  1.33364E-12  4.76251E+04  0.00000E+00  1.0E-05
  6.750E-04  3.46979E-11  1.33360E-12  4.76238E+04  0.00000E+00  1.0E-05
  7.000E-04  3.73157E-11  1.33357E-12  4.76225E+04  0.00000E+00  1.0E-05
  7.250E-04  4.00286E-11  1.33353E-12  4.76211E+04  0.00000E+00  1.0E-05
  7.500E-04  4.28368E-11  1.33349E-12  4.76197E+04  0.00000E+00  1.0E-05
  7.750E-04  4.57402E-11  1.33345E-12  4.76183E+04  0.00000E+00  1.0E-05
  8.000E-04  4.87388E-11  1.33341E-12  4.76168E+04  0.00000E+00  1.0E-05
  8.250E-04  5.18325E-11  1.33336E-12  4.76152E+04  0.00000E+00  1.0E-05
  8.500E-04  5.50215E-11  1.33332E-12  4.76136E+04  0.00000E+00  1.0E-05
  8.750E-04  5.83057E-11  1.33327E-12  4.76120E+04  0.00000E+00  1.0E-05
  9.000E-04  6.16850E-11  1.33322E-12  4.76103E+04  0.00000E+00  1.0E-05
  9.250E-04  6.51595E-11  1.33318E-12  4.76086E+04  0.00000E+00  1.0E-05
  9.500E-04  6.87293E-11  1.33313E-12  4.76068E+04  0.00000E+00  1.0E-05
  9.750E-04  7.23943E-11  1.33307E-12  4.76049E+04  0.00000E+00  1.0E-05
  1.000E-03  7.61544E-11  1.33302E-12  4.76031E+04  0.00000E+00  1.0E-05
  1.250E-03  1.18991E-10  1.33242E-12  4.75816E+04  0.00000E+00  1.0E-05
  1.500E-03  1.71347E-10  1.33169E-12  4.75555E+04  0.00000E+00  1.0E-05
  1.750E-03  2.33223E-10  1.33082E-12  4.75246E+04  0.00000E+00  1.0E-05
  2.000E-03  3.04617E-10  1.32983E-12  4.74889E+04  0.00000E+00  1.0E-05
  2.250E-03  3.85531E-10  1.32870E-12  4.74486E+04  0.00000E+00  1.0E-05
  2.500E-03  4.75965E-10  1.32744E-12  4.74036E+04  0.00000E+00  1.0E-05
  2.750E-03  5.75917E-10  1.32605E-12  4.73540E+04  0.00000E+00  1.0E-05
  3.000E-03  6.85389E-10  1.32453E-12  4.72997E+04  0.00000E+00  1.0E-05
  3.250E-03  8.04380E-10  1.32288E-12  4.72409E+04  0.00000E+00  1.0E-05
  3.500E-03  9.32891E-10  1.32110E-12  4.71774E+04  0.00000E+00  1.0E-05
  3.750E-03  1.07092E-09  1.31920E-12  4.71094E+04  0.00000E+00  1.0E-05
  4.000E-03  1.21847E-09  1.31717E-12  4.70369E+04  0.00000E+00  1.0E-05
  4.250E-03  1.37554E-09  1.31501E-12  4.69599E+04  0.00000E+00  1.0E-05
  4.500E-03  1.54213E-09  1.31273E-12  4.68785E+04  0.00000E+00  1.0E-05
  4.750E-03  1.71823E-09  1.31033E-12  4.67927E+04  0.00000E+00  1.0E-05
  5.000E-03  1.90386E-09  1.30781E-12  4.67026E+04  0.00000E+00  1.0E-05
  5.250E-03  2.09900E-09  1.30516E-12  4.66081E+04  0.00000E+00  1.0E-05
  5.500E-03  2.30367E-09  1.30239E-12  4.65094E+04  0.00000E+00  1.0E-05
  5.750E-03  2.51785E-09  1.29951E-12  4.64064E+04  0.00000E+00  1.0E-05
  6.000E-03  2.74156E-09  1.29651E-12  4.62993E+04  0.00000E+00  1.0E-05
  6.250E-03  2.97478E-09  1.29340E-12  4.61881E+04  0.00000E+00  1.0E-05
  6.500E-03  3.21752E-09  1.29017E-12  4.60728E+04  0.00000E+00  1.0E-05
  6.750E-03  3.46978E-09  1.28683E-12  4.59535E+04  0.00000E+00  1.0E-05
  7.000E-03  3.73156E-09  1.28338E-12  4.58302E+04  0.00000E+00  1.0E-05
  7.250E-03  4.00286E-09  1.27982E-12  4.57030E+04  0.00000E+00  1.0E-05
  7.500E-03  4.28368E-09  1.27615E-12  4.55721E+04  0.00000E+00  1.0E-05
  7.750E-03  4.57402E-09  1.27237E-12  4.54373E+04  0.00000E+00  1.0E-05
  8.000E-03  4.87388E-09  1.26850E-12  4.52988E+04  0.00000E+00  1.0E-05
  8.250E-03  5.18326E-09  1.26452E-12  4.51567E+04  0.00000E+00  1.0E-05
  8.500E-03  5.50215E-09  1.26044E-12  4.50110E+04  0.00000E+00  1.0E-05
  8.750E-03  5.83057E-09  1.25626E-12  4.48618E+04  0.00000E+00  1.0E-05
  9.000E-03  6.16850E-09  1.25198E-12  4.47091E+04  0.00000E+00  1.0E-05
  9.250E-03  6.51596E-09  1.24761E-12  4.45530E+04  0.00000E+00  1.0E-05
  9.500E-03  6.87293E-09  1.24315E-12  4.43936E+04  0.00000E+00  1.0E-05
  9.750E-03  7.23942E-09  1.23859E-12  4.42310E+04  0.00000E+00  1.0E-05
  1.000E-02  7.61544E-09  1.23395E-12  4.40652E+04  0.00000E+00  1.0E-05
  1.250E-02  1.18991E-08  1.18308E-12  4.22486E+04  0.00000E+00  1.0E-05
  1.500E-02  1.71347E-08  1.12578E-12  4.02025E+04  0.00000E+00  1.0E-05
  1.750E-02  2.33223E-08  1.06388E-12  3.79920E+04  0.00000E+00  1.0E-05
  2.000E-02  3.04617E-08  9.99420E-13  3.56900E+04  0.00000E+00  1.0E-05
  2.250E-02  3.85531E-08  9.34467E-13  3.33704E+04  0.00000E+00  1.0E-05
  2.500E-02  4.75965E-08  8.70489E-13  3.10857E+04  0.00000E+00  1.0E-05
  2.750E-02  5.75917E-08  8.08470E-13  2.88710E+04  0.00000E+00  1.0E-05
  3.000E-02  6.85389E-08  7.49280E-13  2.67573E+04  0.00000E+00  1.0E-05
  3.250E-02  8.04380E-08  6.93726E-13  2.47734E+04  0.00000E+00  1.0E-05
  3.500E-02  9.32891E-08  6.42218E-13  2.29340E+04  0.00000E+00  1.0E-05
  3.750E-02  1.07092E-07  5.94591E-13  2.12332E+04  0.00000E+00  1.0E-05
  4.000E-02  1.21847E-07  5.50847E-13  1.96711E+04  0.00000E+00  1.0E-05
  4.250E-02  1.37554E-07  5.10953E-13  1.82465E+04  0.00000E+00  1.0E-05
  4.500E-02  1.54213E-07  4.74848E-13  1.69571E+04  0.00000E+00  1.0E-05
  4.750E-02  1.71823E-07  4.42008E-13  1.57844E+04  0.00000E+00  1.0E-05
  5.000E-02  1.90386E-07  4.12187E-13  1.47195E+04  0.00000E+00  1.0E-05
  5.250E-02  2.09900E-07  3.85135E-13  1.37534E+04  0.00000E+00  1.0E-05
  5.500E-02  2.30367E-07  3.60694E-13  1.28806E+04  0.00000E+00  1.0E-05
  5.750E-02  2.51785E-07  3.38443E-13  1.20860E+04  0.00000E+00  1.0E-05
  6.000E-02  2.74156E-07  3.18166E-13  1.13619E+04  0.00000E+00  1.0E-05
  6.250E-02  2.97478E-07  2.99662E-13  1.07011E+04  0.00000E+00  1.0E-05
  6.500E-02  3.21752E-07  2.82747E-13  1.00971E+04  0.00000E+00  1.0E-05
  6.750E-02  3.46978E-07  2.67214E-13  9.54238E+03  0.00000E+00  1.0E-05
  7.000E-02  3.73156E-07  2.52917E-13  9.03184E+03  0.00000E+00  1.0E-05
  7.250E-02  4.00286E-07  2.39732E-13  8.56097E+03  0.00000E+00  1.0E-05
  7.500E-02  4.28368E-07  2.27513E-13  8.12463E+03  0.00000E+00  1.0E-05
  7.750E-02  4.57402E-07  2.16156E-13  7.71907E+03  0.00000E+00  1.0E-05
  8.000E-02  4.87388E-07  2.05592E-13  7.34182E+03  0.00000E+00  1.0E-05
  8.250E-02  5.18325E-07  1.95745E-13  6.99018E+03  0.00000E+00  1.0E-05
  8.500E-02  5.50215E-07  1.86522E-13  6.66083E+03  0.00000E+00  1.0E-05
  8.750E-02  5.83057E-07  1.77850E-13  6.35115E+03  0.00000E+00  1.0E-05
  9.000E-02  6.16850E-07  1.69714E-13  6.06059E+03  0.00000E+00  1.0E-05
  9.250E-02  6.51596E-07  1.62067E-13  5.78753E+03  0.00000E+00  1.0E-05
  9.500E-02  6.87293E-07  1.54857E-13  5.53005E+03  0.00000E+00  1.0E-05
  9.750E-02  7.23942E-07  1.48014E-13  5.28569E+03  0.00000E+00  1.0E-05
  1.000E-01  7.61543E-07  1.41555E-13  5.05503E+03  0.00000E+00  1.0E-05
  1.250E-01  1.18991E-06  9.25393E-14  3.30464E+03  0.00000E+00  1.0E-05
  1.500E-01  1.71347E-06  6.14761E-14  2.19535E+03  0.00000E+00  1.0E-05
  1.750E-01  2.33223E-06  4.28108E-14  1.52880E+03  0.00000E+00  1.0E-05
  2.000E-01  3.04617E-06  3.06746E-14  1.09541E+03  0.00000E+00  1.0E-05
  2.250E-01  3.85531E-06  2.23994E-14  7.99898E+02  0.00000E+00  1.0E-05
  2.500E-01  4.75964E-06  1.67133E-14  5.96843E+02  0.00000E+00  1.0E-05
  2.750E-01  5.75916E-06  1.27358E-14  4.54804E+02  0.00000E+00  1.0E-05
  3.000E-01  6.85388E-06  9.87030E-15  3.52475E+02  0.00000E+00  1.0E-05
  3.250E-01  8.04378E-06  7.73862E-15  2.76351E+02  0.00000E+00  1.0E-05
  3.500E-01  9.32888E-06  6.12785E-15  2.18830E+02  0.00000E+00  1.0E-05
  3.750E-01  1.07092E-05  4.91028E-15  1.75349E+02  0.00000E+00  1.0E-05
  4.000E-01  1.21846E-05  3.97575E-15  1.41977E+02  0.00000E+00  1.0E-05
  4.250E-01  1.37553E-05  3.24782E-15  1.15982E+02  0.00000E+00  1.0E-05
  4.500E-01  1.54212E-05  2.67359E-15  9.54757E+01  0.00000E+00  1.0E-05
  4.750E-01  1.71822E-05  2.22129E-15  7.93236E+01  0.00000E+00  1.0E-05
  5.000E-01  1.90385E-05  1.86032E-15  6.64331E+01  0.00000E+00  1.0E-05
  5.250E-01  2.09899E-05  1.57202E-15  5.61380E+01  0.00000E+00  1.0E-05
  5.500E-01  2.30365E-05  1.33716E-15  4.77510E+01  0.00000E+00  1.0E-05
  5.750E-01  2.51783E-05  1.14537E-15  4.09019E+01  0.00000E+00  1.0E-05
  6.000E-01  2.74153E-05  9.87425E-16  3.52616E+01  0.00000E+00  1.0E-05
  6.250E-01  2.97475E-05  8.56443E-16  3.05841E+01  0.00000E+00  1.0E-05
  6.500E-01  3.21749E-05  7.47066E-16  2.66782E+01  0.00000E+00  1.0E-05
  6.750E-01  3.46974E-05  6.54749E-16  2.33815E+01  0.00000E+00  1.0E-05
  7.000E-01  3.73152E-05  5.76641E-16  2.05922E+01  0.00000E+00  1.0E-05
  7.250E-01  4.00281E-05  5.10247E-16  1.82212E+01  0.00000E+00  1.0E-05
  7.500E-01  4.28362E-05  4.53348E-16  1.61893E+01  0.00000E+00  1.0E-05
  7.750E-01  4.57395E-05  4.04319E-16  1.44385E+01  0.00000E+00  1.0E-05
  8.000E-01  4.87380E-05  3.61875E-16  1.29228E+01  0.00000E+00  1.0E-05
  8.250E-01  5.18317E-05  3.24937E-16  1.16037E+01  0.00000E+00  1.0E-05
  8.500E-01  5.50205E-05  2.92585E-16  1.04484E+01  0.00000E+00  1.0E-05
  8.750E-01  5.83045E-05  2.64117E-16  9.43177E+00  0.00000E+00  1.0E-05
  9.000E-01  6.16838E-05  2.39040E-16  8.53628E+00  0.00000E+00  1.0E-05
  9.250E-01  6.51582E-05  2.16877E-16  7.74482E+00  0.00000E+00  1.0E-05
  9.500E-01  6.87277E-05  1.97209E-16  7.04247E+00  0.00000E+00  1.0E-05
  9.750E-01  7.23925E-05  1.79676E-16  6.41635E+00  0.00000E+00  1.0E-05
  1.000E+00  7.61524E-05  1.64051E-16  5.85838E+00  0.00000E+00  8.8E-06
  1.100E+00  9.21439E-05  1.16170E-16  4.14850E+00  0.00000E+00  6.6E-06
  1.200E+00  1.09658E-04  8.44749E-17  3.01665E+00  0.00000E+00  3.6E-06
  1.300E+00  1.28695E-04  6.28329E-17  2.24380E+00  0.00000E+00  6.9E-07
  1.400E+00  1.49255E-04  4.76452E-17  1.70144E+00  0.00000E+00  1.4E-06
  1.500E+00  1.71338E-04  3.68098E-17  1.31450E+00  0.00000E+00  2.6E-06
  1.600E+00  1.94942E-04  2.88942E-17  1.03183E+00  0.00000E+00  2.7E-06
  1.700E+00  2.20070E-04  2.29975E-17  8.21257E-01  0.00000E+00  2.2E-06
  1.800E+00  2.46720E-04  1.85290E-17  6.61681E-01  0.00000E+00  1.2E-06
  1.900E+00  2.74892E-04  1.51003E-17  5.39241E-01  0.00000E+00  1.8E-07
  2.000E+00  3.04586E-04  1.24331E-17  4.43994E-01  0.00000E+00  6.6E-07
  2.100E+00  3.35803E-04  1.03322E-17  3.68970E-01  0.00000E+00  1.1E-06
  2.200E+00  3.68542E-04  8.65542E-18  3.09091E-01  0.00000E+00  1.2E-06
  2.300E+00  4.02802E-04  7.30712E-18  2.60942E-01  0.00000E+00  9.9E-07
  2.400E+00  4.38585E-04  6.21261E-18  2.21856E-01  0.00000E+00  5.5E-07
  2.500E+00  4.75889E-04  5.31641E-18  1.89853E-01  0.00000E+00  1.0E-07
  2.600E+00  5.14715E-04  4.57568E-18  1.63401E-01  0.00000E+00  3.8E-07
  2.700E+00  5.55063E-04  3.95996E-18  1.41413E-01  0.00000E+00  6.3E-07
  2.800E+00  5.96931E-04  3.44478E-18  1.23015E-01  0.00000E+00  6.7E-07
  2.900E+00  6.40321E-04  3.01097E-18  1.07524E-01  0.00000E+00  5.4E-07
  3.000E+00  6.85233E-04  2.64324E-18  9.43917E-02  0.00000E+00  2.9E-07
  3.100E+00  7.31665E-04  2.32999E-18  8.32054E-02  0.00000E+00  1.0E-07
  3.200E+00  7.79618E-04  2.06193E-18  7.36328E-02  0.00000E+00  2.5E-07
  3.300E+00  8.29092E-04  1.83142E-18  6.54013E-02  0.00000E+00  3.9E-07
  3.400E+00  8.80086E-04  1.63223E-18  5.82878E-02  0.00000E+00  4.1E-07
  3.500E+00  9.32601E-04  1.45935E-18  5.21143E-02  0.00000E+00  3.3E-07
  3.600E+00  9.86636E-04  1.30883E-18  4.67390E-02  0.00000E+00  1.7E-07
  3.700E+00  1.04219E-03  1.17726E-18  4.20407E-02  0.00000E+00  1.0E-07
  3.800E+00  1.09927E-03  1.06183E-18  3.79186E-02  0.00000E+00  1.7E-07
  3.900E+00  1.15786E-03  9.60171E-19  3.42883E-02  0.00000E+00  2.6E-07
  4.000E+00  1.21797E-03  8.70426E-19  3.10835E-02  0.00000E+00  2.7E-07
  4.100E+00  1.27961E-03  7.90952E-19  2.82454E-02  0.00000E+00  2.1E-07
  4.200E+00  1.34276E-03  7.20364E-19  2.57247E-02  0.00000E+00  1.0E-07
  4.300E+00  1.40743E-03  6.57459E-19  2.34783E-02  0.00000E+00  1.0E-07
  4.400E+00  1.47362E-03  6.01295E-19  2.14726E-02  0.00000E+00  1.3E-07
  4.500E+00  1.54133E-03  5.51021E-19  1.96773E-02  0.00000E+00  1.9E-07
  4.600E+00  1.61056E-03  5.05910E-19  1.80664E-02  0.00000E+00  1.9E-07
  4.700E+00  1.68131E-03  4.65320E-19  1.66169E-02  0.00000E+00  1.4E-07
  4.800E+00  1.75357E-03  4.28733E-19  1.53103E-02  0.00000E+00  1.0E-07
  4.900E+00  1.82735E-03  3.95686E-19  1.41302E-02  0.00000E+00  1.0E-07
  5.000E+00  1.90265E-03  3.65776E-19  1.30621E-02  0.00000E+00  1.0E-07
  5.100E+00  1.97947E-03  3.38643E-19  1.20932E-02  0.00000E+00  1.4E-07
  5.200E+00  2.05780E-03  3.13989E-19  1.12127E-02  0.00000E+00  1.4E-07
  5.300E+00  2.13765E-03  2.91549E-19  1.04114E-02  0.00000E+00  1.0E-07
  5.400E+00  2.21902E-03  2.71088E-19  9.68071E-03  0.00000E+00  1.0E-07
  5.500E+00  2.30190E-03  2.52397E-19  9.01325E-03  0.00000E+00  1.0E-07
  5.600E+00  2.38630E-03  2.35295E-19  8.40252E-03  0.00000E+00  1.0E-07
  5.700E+00  2.47222E-03  2.19625E-19  7.84296E-03  0.00000E+00  1.1E-07
  5.800E+00  2.55965E-03  2.05246E-19  7.32948E-03  0.00000E+00  1.0E-07
  5.900E+00  2.64859E-03  1.92031E-19  6.85755E-03  0.00000E+00  1.0E-07
  6.000E+00  2.73905E-03  1.79867E-19  6.42315E-03  0.00000E+00  1.0E-07
  6.100E+00  2.83103E-03  1.68656E-19  6.02283E-03  0.00000E+00  1.0E-07
  6.200E+00  2.92452E-03  1.58312E-19  5.65343E-03  0.00000E+00  1.0E-07
  6.300E+00  3.01952E-03  1.48754E-19  5.31209E-03  0.00000E+00  1.0E-07
  6.400E+00  3.11604E-03  1.39909E-19  4.99625E-03  0.00000E+00  1.0E-07
  6.500E+00  3.21407E-03  1.31717E-19  4.70370E-03  0.00000E+00  1.0E-07
  6.600E+00  3.31362E-03  1.24120E-19  4.43241E-03  0.00000E+00  1.0E-07
  6.700E+00  3.41468E-03  1.17067E-19  4.18055E-03  0.00000E+00  1.0E-07
  6.800E+00  3.51725E-03  1.10511E-19  3.94642E-03  0.00000E+00  1.0E-07
  6.900E+00  3.62133E-03  1.04411E-19  3.72857E-03  0.00000E+00  1.0E-07
  7.000E+00  3.72692E-03  9.87290E-20  3.52568E-03  0.00000E+00  1.0E-07
  7.100E+00  3.83403E-03  9.34318E-20  3.33651E-03  0.00000E+00  1.0E-07
  7.200E+00  3.94265E-03  8.84873E-20  3.15994E-03  0.00000E+00  1.0E-07
  7.300E+00  4.05278E-03  8.38683E-20  2.99499E-03  0.00000E+00  1.0E-07
  7.400E+00  4.16442E-03  7.95494E-20  2.84076E-03  0.00000E+00  1.0E-07
  7.500E+00  4.27757E-03  7.55073E-20  2.69642E-03  0.00000E+00  1.0E-07
  7.600E+00  4.39223E-03  7.17208E-20  2.56119E-03  0.00000E+00  1.0E-07
  7.700E+00  4.50840E-03  6.81705E-20  2.43441E-03  0.00000E+00  1.0E-07
  7.800E+00  4.62608E-03  6.48393E-20  2.31545E-03  0.00000E+00  1.0E-07
  7.900E+00  4.74527E-03  6.17110E-20  2.20374E-03  0.00000E+00  1.0E-07
  8.000E+00  4.86597E-03  5.87708E-20  2.09874E-03  0.00000E+00  1.0E-07
  8.100E+00  4.98817E-03  5.60050E-20  1.99998E-03  0.00000E+00  1.0E-07
  8.200E+00  5.11188E-03  5.34017E-20  1.90701E-03  0.00000E+00  1.0E-07
  8.300E+00  5.23711E-03  5.09494E-20  1.81944E-03  0.00000E+00  1.0E-07
  8.400E+00  5.36383E-03  4.86376E-20  1.73688E-03  0.00000E+00  1.0E-07
  8.500E+00  5.49207E-03  4.64566E-20  1.65900E-03  0.00000E+00  1.0E-07
  8.600E+00  5.62181E-03  4.43978E-20  1.58547E-03  0.00000E+00  1.0E-07
  8.700E+00  5.75306E-03  4.24529E-20  1.51602E-03  0.00000E+00  1.0E-07
  8.800E+00  5.88581E-03  4.06145E-20  1.45037E-03  0.00000E+00  1.0E-07
  8.900E+00  6.02007E-03  3.88755E-20  1.38827E-03  0.00000E+00  1.0E-07
  9.000E+00  6.15583E-03  3.72296E-20  1.32949E-03  0.00000E+00  1.0E-07
  9.100E+00  6.29310E-03  3.56708E-20  1.27383E-03  0.00000E+00  1.0E-07
  9.200E+00  6.43187E-03  3.41937E-20  1.22108E-03  0.00000E+00  1.0E-07
  9.300E+00  6.57214E-03  3.27931E-20  1.17106E-03  0.00000E+00  1.0E-07
  9.400E+00  6.71392E-03  3.14642E-20  1.12361E-03  0.00000E+00  1.0E-07
  9.500E+00  6.85720E-03  3.02027E-20  1.07856E-03  0.00000E+00  1.0E-07
  9.600E+00  7.00198E-03  2.90046E-20  1.03577E-03  0.00000E+00  1.0E-07
  9.700E+00  7.14827E-03  2.78660E-20  9.95111E-04  0.00000E+00  1.0E-07
  9.800E+00  7.29605E-03  2.67833E-20  9.56447E-04  0.00000E+00  1.0E-07
  9.900E+00  7.44534E-03  2.57533E-20  9.19667E-04  0.00000E+00  1.0E-07
  1.000E+01  7.59612E-03  2.47730E-20  8.84660E-04  0.00000E+00  1.0E-07
  1.025E+01  7.97965E-03  2.25210E-20  8.04241E-04  0.00000E+00  1.0E-07
  1.050E+01  8.37255E-03  2.05222E-20  7.32861E-04  0.00000E+00  1.0E-07
  1.075E+01  8.77480E-03  1.87429E-20  6.69321E-04  0.00000E+00  1.0E-07
  1.100E+01  9.18641E-03  1.71547E-20  6.12605E-04  0.00000E+00  1.0E-07
  1.125E+01  9.60736E-03  1.57333E-20  5.61848E-04  0.00000E+00  1.0E-07
  1.150E+01  1.00376E-02  1.44581E-20  5.16309E-04  0.00000E+00  1.0E-07
  1.175E+01  1.04773E-02  1.33113E-20  4.75353E-04  0.00000E+00  1.0E-07
  1.200E+01  1.09262E-02  1.22775E-20  4.38436E-04  0.00000E+00  1.0E-07
  1.225E+01  1.13844E-02  1.13435E-20  4.05085E-04  0.00000E+00  1.0E-07
  1.250E+01  1.18520E-02  1.04980E-20  3.74892E-04  0.00000E+00  1.0E-07
  1.275E+01  1.23288E-02  9.73107E-21  3.47503E-04  0.00000E+00  1.0E-07
  1.300E+01  1.28150E-02  9.03396E-21  3.22608E-04  0.00000E+00  1.0E-07
  1.325E+01  1.33104E-02  8.39911E-21  2.99938E-04  0.00000E+00  1.0E-07
  1.350E+01  1.38150E-02  7.82003E-21  2.79258E-04  0.00000E+00  1.0E-07
  1.375E+01  1.43290E-02  7.29082E-21  2.60360E-04  0.00000E+00  1.0E-07
  1.400E+01  1.48521E-02  6.80637E-21  2.43060E-04  0.00000E+00  1.0E-07
  1.425E+01  1.53845E-02  6.36223E-21  2.27199E-04  0.00000E+00  1.0E-07
  1.450E+01  1.59262E-02  5.95439E-21  2.12635E-04  0.00000E+00  1.0E-07
  1.475E+01  1.64770E-02  5.57930E-21  1.99240E-04  0.00000E+00  1.0E-07
  1.500E+01  1.70371E-02  5.23382E-21  1.86903E-04  0.00000E+00  1.0E-07
  1.525E+01  1.76063E-02  4.91520E-21  1.75525E-04  0.00000E+00  1.0E-07
