 #
 # Subroutine ELSEPA. Elastic scattering of electrons and positrons
 #                    by neutral atoms and positive ions
 #
 # Projectile: electron
 # Kinetic energy = 3.70000E+06 eV = 1.35973E+05 a.u.
 #
 # WARNING: High-energy factorization with free-atom DF screening.
 #          Absorption, polarization and exchange corrections are
 #          switched off.
 #          Phase shifts are calculated for the bare nucleus.
 #          Scattering amplitudes are not evaluated.
 #
 # Element: In,  Z =  49,  atomic weight = 1.14818E+02 g/mol
 #
 # Nuclear model: Fermi distribution
 #                Average radius = 5.20060E-13 cm
 #                Skin thickness = 5.46000E-14 cm
 #
 # Number of electrons = 49
 #
 # Total elastic cross section = 4.89843E-18 cm**2 = 1.74926E-01 a0**2
 # 1st transport cross section = 2.11577E-22 cm**2 = 7.55554E-06 a0**2
 # 2nd transport cross section = 5.87964E-22 cm**2 = 2.09966E-05 a0**2
 #
 #
 # Differential cross section:                       MU=(1-COS(THETA))/2
 #
 #  THETA        MU          DCS          DCS        Sherman      error
 #  (deg)                 (cm**2/sr)   (a0**2/sr)    function
 #----------------------------------------------------------------------
  0.000E+00  0.00000E+00  7.35117E-13  2.62515E+04  0.00000E+00  1.0E-05
  1.000E-04  7.61557E-13  7.35114E-13  2.62514E+04  0.00000E+00  1.0E-05
  1.250E-04  1.18994E-12  7.35112E-13  2.62513E+04  0.00000E+00  1.0E-05
  1.500E-04  1.71346E-12  7.35109E-13  2.62512E+04  0.00000E+00  1.0E-05
  1.750E-04  2.33225E-12  7.35106E-13  2.62511E+04  0.00000E+00  1.0E-05
  2.000E-04  3.04617E-12  7.35103E-13  2.62510E+04  0.00000E+00  1.0E-05
  2.250E-04  3.85530E-12  7.35099E-13  2.62509E+04  0.00000E+00  1.0E-05
  2.500E-04  4.75964E-12  7.35094E-13  2.62507E+04  0.00000E+00  1.0E-05
  2.750E-04  5.75917E-12  7.35089E-13  2.62505E+04  0.00000E+00  1.0E-05
  3.000E-04  6.85391E-12  7.35084E-13  2.62503E+04  0.00000E+00  1.0E-05
  3.250E-04  8.04379E-12  7.35078E-13  2.62501E+04  0.00000E+00  1.0E-05
  3.500E-04  9.32893E-12  7.35072E-13  2.62499E+04  0.00000E+00  1.0E-05
  3.750E-04  1.07092E-11  7.35065E-13  2.62496E+04  0.00000E+00  1.0E-05
  4.000E-04  1.21847E-11  7.35058E-13  2.62494E+04  0.00000E+00  1.0E-05
  4.250E-04  1.37554E-11  7.35050E-13  2.62491E+04  0.00000E+00  1.0E-05
  4.500E-04  1.54213E-11  7.35042E-13  2.62488E+04  0.00000E+00  1.0E-05
  4.750E-04  1.71823E-11  7.35033E-13  2.62485E+04  0.00000E+00  1.0E-05
  5.000E-04  1.90386E-11  7.35024E-13  2.62482E+04  0.00000E+00  1.0E-05
  5.250E-04  2.09900E-11  7.35014E-13  2.62478E+04  0.00000E+00  1.0E-05
  5.500E-04  2.30367E-11  7.35004E-13  2.62475E+04  0.00000E+00  1.0E-05
  5.750E-04  2.51785E-11  7.34994E-13  2.62471E+04  0.00000E+00  1.0E-05
  6.000E-04  2.74156E-11  7.34983E-13  2.62467E+04  0.00000E+00  1.0E-05
  6.250E-04  2.97478E-11  7.34971E-13  2.62463E+04  0.00000E+00  1.0E-05
  6.500E-04  3.21752E-11  7.34959E-13  2.62459E+04  0.00000E+00  1.0E-05
  6.750E-04  3.46979E-11  7.34947E-13  2.62454E+04  0.00000E+00  1.0E-05
  7.000E-04  3.73157E-11  7.34934E-13  2.62450E+04  0.00000E+00  1.0E-05
  7.250E-04  4.00286E-11  7.34921E-13  2.62445E+04  0.00000E+00  1.0E-05
  7.500E-04  4.28368E-11  7.34907E-13  2.62440E+04  0.00000E+00  1.0E-05
  7.750E-04  4.57402E-11  7.34892E-13  2.62435E+04  0.00000E+00  1.0E-05
  8.000E-04  4.87388E-11  7.34878E-13  2.62430E+04  0.00000E+00  1.0E-05
  8.250E-04  5.18325E-11  7.34862E-13  2.62424E+04  0.00000E+00  1.0E-05
  8.500E-04  5.50215E-11  7.34847E-13  2.62419E+04  0.00000E+00  1.0E-05
  8.750E-04  5.83057E-11  7.34830E-13  2.62413E+04  0.00000E+00  1.0E-05
  9.000E-04  6.16850E-11  7.34814E-13  2.62407E+04  0.00000E+00  1.0E-05
  9.250E-04  6.51595E-11  7.34797E-13  2.62401E+04  0.00000E+00  1.0E-05
  9.500E-04  6.87293E-11  7.34779E-13  2.62394E+04  0.00000E+00  1.0E-05
  9.750E-04  7.23943E-11  7.34761E-13  2.62388E+04  0.00000E+00  1.0E-05
  1.000E-03  7.61544E-11  7.34743E-13  2.62381E+04  0.00000E+00  1.0E-05
  1.250E-03  1.18991E-10  7.34531E-13  2.62306E+04  0.00000E+00  1.0E-05
  1.500E-03  1.71347E-10  7.34274E-13  2.62214E+04  0.00000E+00  1.0E-05
  1.750E-03  2.33223E-10  7.33969E-13  2.62105E+04  0.00000E+00  1.0E-05
  2.000E-03  3.04617E-10  7.33618E-13  2.61980E+04  0.00000E+00  1.0E-05
  2.250E-03  3.85531E-10  7.33220E-13  2.61838E+04  0.00000E+00  1.0E-05
  2.500E-03  4.75965E-10  7.32776E-13  2.61679E+04  0.00000E+00  1.0E-05
  2.750E-03  5.75917E-10  7.32285E-13  2.61504E+04  0.00000E+00  1.0E-05
  3.000E-03  6.85389E-10  7.31749E-13  2.61312E+04  0.00000E+00  1.0E-05
  3.250E-03  8.04380E-10  7.31166E-13  2.61104E+04  0.00000E+00  1.0E-05
  3.500E-03  9.32891E-10  7.30538E-13  2.60880E+04  0.00000E+00  1.0E-05
  3.750E-03  1.07092E-09  7.29865E-13  2.60640E+04  0.00000E+00  1.0E-05
  4.000E-03  1.21847E-09  7.29146E-13  2.60383E+04  0.00000E+00  1.0E-05
  4.250E-03  1.37554E-09  7.28383E-13  2.60110E+04  0.00000E+00  1.0E-05
  4.500E-03  1.54213E-09  7.27574E-13  2.59822E+04  0.00000E+00  1.0E-05
  4.750E-03  1.71823E-09  7.26722E-13  2.59517E+04  0.00000E+00  1.0E-05
  5.000E-03  1.90386E-09  7.25825E-13  2.59197E+04  0.00000E+00  1.0E-05
  5.250E-03  2.09900E-09  7.24884E-13  2.58861E+04  0.00000E+00  1.0E-05
  5.500E-03  2.30367E-09  7.23899E-13  2.58509E+04  0.00000E+00  1.0E-05
  5.750E-03  2.51785E-09  7.22872E-13  2.58142E+04  0.00000E+00  1.0E-05
  6.000E-03  2.74156E-09  7.21801E-13  2.57760E+04  0.00000E+00  1.0E-05
  6.250E-03  2.97478E-09  7.20689E-13  2.57363E+04  0.00000E+00  1.0E-05
  6.500E-03  3.21752E-09  7.19534E-13  2.56950E+04  0.00000E+00  1.0E-05
  6.750E-03  3.46978E-09  7.18337E-13  2.56523E+04  0.00000E+00  1.0E-05
  7.000E-03  3.73156E-09  7.17099E-13  2.56081E+04  0.00000E+00  1.0E-05
  7.250E-03  4.00286E-09  7.15819E-13  2.55624E+04  0.00000E+00  1.0E-05
  7.500E-03  4.28368E-09  7.14500E-13  2.55152E+04  0.00000E+00  1.0E-05
  7.750E-03  4.57402E-09  7.13140E-13  2.54667E+04  0.00000E+00  1.0E-05
  8.000E-03  4.87388E-09  7.11741E-13  2.54167E+04  0.00000E+00  1.0E-05
  8.250E-03  5.18326E-09  7.10302E-13  2.53653E+04  0.00000E+00  1.0E-05
  8.500E-03  5.50215E-09  7.08824E-13  2.53126E+04  0.00000E+00  1.0E-05
  8.750E-03  5.83057E-09  7.07309E-13  2.52585E+04  0.00000E+00  1.0E-05
  9.000E-03  6.16850E-09  7.05755E-13  2.52030E+04  0.00000E+00  1.0E-05
  9.250E-03  6.51596E-09  7.04164E-13  2.51462E+04  0.00000E+00  1.0E-05
  9.500E-03  6.87293E-09  7.02537E-13  2.50880E+04  0.00000E+00  1.0E-05
  9.750E-03  7.23942E-09  7.00873E-13  2.50286E+04  0.00000E+00  1.0E-05
  1.000E-02  7.61544E-09  6.99173E-13  2.49679E+04  0.00000E+00  1.0E-05
  1.250E-02  1.18991E-08  6.80325E-13  2.42948E+04  0.00000E+00  1.0E-05
  1.500E-02  1.71347E-08  6.58481E-13  2.35148E+04  0.00000E+00  1.0E-05
  1.750E-02  2.33223E-08  6.34294E-13  2.26511E+04  0.00000E+00  1.0E-05
  2.000E-02  3.04617E-08  6.08363E-13  2.17250E+04  0.00000E+00  1.0E-05
  2.250E-02  3.85531E-08  5.81216E-13  2.07556E+04  0.00000E+00  1.0E-05
  2.500E-02  4.75965E-08  5.53395E-13  1.97621E+04  0.00000E+00  1.0E-05
  2.750E-02  5.75917E-08  5.25411E-13  1.87628E+04  0.00000E+00  1.0E-05
  3.000E-02  6.85389E-08  4.97670E-13  1.77721E+04  0.00000E+00  1.0E-05
  3.250E-02  8.04380E-08  4.70456E-13  1.68003E+04  0.00000E+00  1.0E-05
  3.500E-02  9.32891E-08  4.44001E-13  1.58556E+04  0.00000E+00  1.0E-05
  3.750E-02  1.07092E-07  4.18565E-13  1.49472E+04  0.00000E+00  1.0E-05
  4.000E-02  1.21847E-07  3.94281E-13  1.40800E+04  0.00000E+00  1.0E-05
  4.250E-02  1.37554E-07  3.71210E-13  1.32561E+04  0.00000E+00  1.0E-05
  4.500E-02  1.54213E-07  3.49334E-13  1.24749E+04  0.00000E+00  1.0E-05
  4.750E-02  1.71823E-07  3.28750E-13  1.17399E+04  0.00000E+00  1.0E-05
  5.000E-02  1.90386E-07  3.09441E-13  1.10503E+04  0.00000E+00  1.0E-05
  5.250E-02  2.09900E-07  2.91373E-13  1.04051E+04  0.00000E+00  1.0E-05
  5.500E-02  2.30367E-07  2.74406E-13  9.79923E+03  0.00000E+00  1.0E-05
  5.750E-02  2.51785E-07  2.58582E-13  9.23412E+03  0.00000E+00  1.0E-05
  6.000E-02  2.74156E-07  2.43835E-13  8.70752E+03  0.00000E+00  1.0E-05
  6.250E-02  2.97478E-07  2.30102E-13  8.21709E+03  0.00000E+00  1.0E-05
  6.500E-02  3.21752E-07  2.17252E-13  7.75822E+03  0.00000E+00  1.0E-05
  6.750E-02  3.46978E-07  2.05275E-13  7.33051E+03  0.00000E+00  1.0E-05
  7.000E-02  3.73156E-07  1.94122E-13  6.93222E+03  0.00000E+00  1.0E-05
  7.250E-02  4.00286E-07  1.83732E-13  6.56118E+03  0.00000E+00  1.0E-05
  7.500E-02  4.28368E-07  1.74007E-13  6.21389E+03  0.00000E+00  1.0E-05
  7.750E-02  4.57402E-07  1.64913E-13  5.88915E+03  0.00000E+00  1.0E-05
  8.000E-02  4.87388E-07  1.56425E-13  5.58604E+03  0.00000E+00  1.0E-05
  8.250E-02  5.18325E-07  1.48496E-13  5.30289E+03  0.00000E+00  1.0E-05
  8.500E-02  5.50215E-07  1.41059E-13  5.03732E+03  0.00000E+00  1.0E-05
  8.750E-02  5.83057E-07  1.34070E-13  4.78773E+03  0.00000E+00  1.0E-05
  9.000E-02  6.16850E-07  1.27523E-13  4.55394E+03  0.00000E+00  1.0E-05
  9.250E-02  6.51596E-07  1.21385E-13  4.33473E+03  0.00000E+00  1.0E-05
  9.500E-02  6.87293E-07  1.15613E-13  4.12862E+03  0.00000E+00  1.0E-05
  9.750E-02  7.23942E-07  1.10158E-13  3.93382E+03  0.00000E+00  1.0E-05
  1.000E-01  7.61543E-07  1.05029E-13  3.75066E+03  0.00000E+00  1.0E-05
  1.250E-01  1.18991E-06  6.69209E-14  2.38979E+03  0.00000E+00  1.0E-05
  1.500E-01  1.71347E-06  4.34821E-14  1.55277E+03  0.00000E+00  1.0E-05
  1.750E-01  2.33223E-06  2.95287E-14  1.05449E+03  0.00000E+00  1.0E-05
  2.000E-01  3.04617E-06  2.05344E-14  7.33297E+02  0.00000E+00  1.0E-05
  2.250E-01  3.85531E-06  1.44796E-14  5.17077E+02  0.00000E+00  1.0E-05
  2.500E-01  4.75964E-06  1.04441E-14  3.72964E+02  0.00000E+00  1.0E-05
  2.750E-01  5.75916E-06  7.72261E-15  2.75779E+02  0.00000E+00  1.0E-05
  3.000E-01  6.85388E-06  5.83946E-15  2.08531E+02  0.00000E+00  1.0E-05
  3.250E-01  8.04378E-06  4.50442E-15  1.60856E+02  0.00000E+00  1.0E-05
  3.500E-01  9.32888E-06  3.54033E-15  1.26428E+02  0.00000E+00  1.0E-05
  3.750E-01  1.07092E-05  2.83211E-15  1.01137E+02  0.00000E+00  1.0E-05
  4.000E-01  1.21846E-05  2.30048E-15  8.21517E+01  0.00000E+00  1.0E-05
  4.250E-01  1.37553E-05  1.89296E-15  6.75989E+01  0.00000E+00  1.0E-05
  4.500E-01  1.54212E-05  1.57342E-15  5.61877E+01  0.00000E+00  1.0E-05
  4.750E-01  1.71822E-05  1.32056E-15  4.71579E+01  0.00000E+00  1.0E-05
  5.000E-01  1.90385E-05  1.11732E-15  3.99004E+01  0.00000E+00  1.0E-05
  5.250E-01  2.09899E-05  9.52737E-16  3.40228E+01  0.00000E+00  1.0E-05
  5.500E-01  2.30365E-05  8.16150E-16  2.91452E+01  0.00000E+00  1.0E-05
  5.750E-01  2.51783E-05  7.02992E-16  2.51043E+01  0.00000E+00  1.0E-05
  6.000E-01  2.74153E-05  6.08496E-16  2.17298E+01  0.00000E+00  1.0E-05
  6.250E-01  2.97475E-05  5.29056E-16  1.88929E+01  0.00000E+00  1.0E-05
  6.500E-01  3.21749E-05  4.61572E-16  1.64830E+01  0.00000E+00  1.0E-05
  6.750E-01  3.46974E-05  4.04146E-16  1.44323E+01  0.00000E+00  1.0E-05
  7.000E-01  3.73152E-05  3.55210E-16  1.26848E+01  0.00000E+00  1.0E-05
  7.250E-01  4.00281E-05  3.13350E-16  1.11899E+01  0.00000E+00  1.0E-05
  7.500E-01  4.28362E-05  2.77282E-16  9.90193E+00  0.00000E+00  1.0E-05
  7.750E-01  4.57395E-05  2.46155E-16  8.79035E+00  0.00000E+00  1.0E-05
  8.000E-01  4.87380E-05  2.19230E-16  7.82884E+00  0.00000E+00  1.0E-05
  8.250E-01  5.18317E-05  1.95846E-16  6.99378E+00  0.00000E+00  1.0E-05
  8.500E-01  5.50205E-05  1.75437E-16  6.26498E+00  0.00000E+00  1.0E-05
  8.750E-01  5.83045E-05  1.57573E-16  5.62705E+00  0.00000E+00  1.0E-05
  9.000E-01  6.16838E-05  1.41921E-16  5.06809E+00  0.00000E+00  1.0E-05
  9.250E-01  6.51582E-05  1.28164E-16  4.57681E+00  0.00000E+00  1.0E-05
  9.500E-01  6.87277E-05  1.16031E-16  4.14354E+00  0.00000E+00  1.0E-05
  9.750E-01  7.23925E-05  1.05294E-16  3.76013E+00  0.00000E+00  1.0E-05
  1.000E+00  7.61524E-05  9.57827E-17  3.42046E+00  0.00000E+00  3.8E-06
  1.100E+00  9.21439E-05  6.70374E-17  2.39395E+00  0.00000E+00  2.9E-06
  1.200E+00  1.09658E-04  4.83948E-17  1.72821E+00  0.00000E+00  1.6E-06
  1.300E+00  1.28695E-04  3.58526E-17  1.28032E+00  0.00000E+00  3.2E-07
  1.400E+00  1.49255E-04  2.71355E-17  9.69025E-01  0.00000E+00  6.3E-07
  1.500E+00  1.71338E-04  2.09377E-17  7.47698E-01  0.00000E+00  1.1E-06
  1.600E+00  1.94942E-04  1.64210E-17  5.86406E-01  0.00000E+00  1.2E-06
  1.700E+00  2.20070E-04  1.30595E-17  4.66364E-01  0.00000E+00  9.5E-07
  1.800E+00  2.46720E-04  1.05112E-17  3.75363E-01  0.00000E+00  5.4E-07
  1.900E+00  2.74892E-04  8.55542E-18  3.05520E-01  0.00000E+00  1.0E-07
  2.000E+00  3.04586E-04  7.03383E-18  2.51183E-01  0.00000E+00  2.9E-07
  2.100E+00  3.35803E-04  5.83527E-18  2.08381E-01  0.00000E+00  5.0E-07
  2.200E+00  3.68542E-04  4.87888E-18  1.74228E-01  0.00000E+00  5.4E-07
  2.300E+00  4.02802E-04  4.11050E-18  1.46788E-01  0.00000E+00  4.4E-07
  2.400E+00  4.38585E-04  3.48741E-18  1.24538E-01  0.00000E+00  2.5E-07
  2.500E+00  4.75889E-04  2.97790E-18  1.06343E-01  0.00000E+00  1.0E-07
  2.600E+00  5.14715E-04  2.55749E-18  9.13296E-02  0.00000E+00  1.7E-07
  2.700E+00  5.55063E-04  2.20870E-18  7.88741E-02  0.00000E+00  2.7E-07
  2.800E+00  5.96931E-04  1.91742E-18  6.84723E-02  0.00000E+00  2.9E-07
  2.900E+00  6.40321E-04  1.67263E-18  5.97306E-02  0.00000E+00  2.4E-07
  3.000E+00  6.85233E-04  1.46561E-18  5.23379E-02  0.00000E+00  1.3E-07
  3.100E+00  7.31665E-04  1.28966E-18  4.60546E-02  0.00000E+00  1.0E-07
  3.200E+00  7.79618E-04  1.13940E-18  4.06888E-02  0.00000E+00  1.1E-07
  3.300E+00  8.29092E-04  1.01045E-18  3.60839E-02  0.00000E+00  1.7E-07
  3.400E+00  8.80086E-04  8.99263E-19  3.21133E-02  0.00000E+00  1.8E-07
  3.500E+00  9.32601E-04  8.02974E-19  2.86747E-02  0.00000E+00  1.5E-07
  3.600E+00  9.86636E-04  7.19282E-19  2.56860E-02  0.00000E+00  1.0E-07
  3.700E+00  1.04219E-03  6.46257E-19  2.30782E-02  0.00000E+00  1.0E-07
  3.800E+00  1.09927E-03  5.82297E-19  2.07942E-02  0.00000E+00  1.0E-07
  3.900E+00  1.15786E-03  5.26073E-19  1.87864E-02  0.00000E+00  1.2E-07
  4.000E+00  1.21797E-03  4.76505E-19  1.70163E-02  0.00000E+00  1.2E-07
  4.100E+00  1.27961E-03  4.32667E-19  1.54508E-02  0.00000E+00  1.0E-07
  4.200E+00  1.34276E-03  3.93779E-19  1.40621E-02  0.00000E+00  1.0E-07
  4.300E+00  1.40743E-03  3.59173E-19  1.28263E-02  0.00000E+00  1.0E-07
  4.400E+00  1.47362E-03  3.28306E-19  1.17240E-02  0.00000E+00  1.0E-07
  4.500E+00  1.54133E-03  3.00701E-19  1.07382E-02  0.00000E+00  1.0E-07
  4.600E+00  1.61056E-03  2.75953E-19  9.85444E-03  0.00000E+00  1.0E-07
  4.700E+00  1.68131E-03  2.53706E-19  9.06001E-03  0.00000E+00  1.0E-07
  4.800E+00  1.75357E-03  2.33668E-19  8.34443E-03  0.00000E+00  1.0E-07
  4.900E+00  1.82735E-03  2.15580E-19  7.69851E-03  0.00000E+00  1.0E-07
  5.000E+00  1.90265E-03  1.99219E-19  7.11423E-03  0.00000E+00  1.0E-07
  5.100E+00  1.97947E-03  1.84386E-19  6.58455E-03  0.00000E+00  1.0E-07
  5.200E+00  2.05780E-03  1.70915E-19  6.10348E-03  0.00000E+00  1.0E-07
  5.300E+00  2.13765E-03  1.58659E-19  5.66581E-03  0.00000E+00  1.0E-07
  5.400E+00  2.21902E-03  1.47488E-19  5.26688E-03  0.00000E+00  1.0E-07
  5.500E+00  2.30190E-03  1.37287E-19  4.90261E-03  0.00000E+00  1.0E-07
  5.600E+00  2.38630E-03  1.27957E-19  4.56943E-03  0.00000E+00  1.0E-07
  5.700E+00  2.47222E-03  1.19411E-19  4.26424E-03  0.00000E+00  1.0E-07
  5.800E+00  2.55965E-03  1.11570E-19  3.98425E-03  0.00000E+00  1.0E-07
  5.900E+00  2.64859E-03  1.04366E-19  3.72699E-03  0.00000E+00  1.0E-07
  6.000E+00  2.73905E-03  9.77365E-20  3.49024E-03  0.00000E+00  1.0E-07
  6.100E+00  2.83103E-03  9.16281E-20  3.27210E-03  0.00000E+00  1.0E-07
  6.200E+00  2.92452E-03  8.59922E-20  3.07084E-03  0.00000E+00  1.0E-07
  6.300E+00  3.01952E-03  8.07855E-20  2.88490E-03  0.00000E+00  1.0E-07
  6.400E+00  3.11604E-03  7.59684E-20  2.71288E-03  0.00000E+00  1.0E-07
  6.500E+00  3.21407E-03  7.15072E-20  2.55357E-03  0.00000E+00  1.0E-07
  6.600E+00  3.31362E-03  6.73707E-20  2.40585E-03  0.00000E+00  1.0E-07
  6.700E+00  3.41468E-03  6.35308E-20  2.26873E-03  0.00000E+00  1.0E-07
  6.800E+00  3.51725E-03  5.99617E-20  2.14127E-03  0.00000E+00  1.0E-07
  6.900E+00  3.62133E-03  5.66412E-20  2.02269E-03  0.00000E+00  1.0E-07
  7.000E+00  3.72692E-03  5.35489E-20  1.91226E-03  0.00000E+00  1.0E-07
  7.100E+00  3.83403E-03  5.06660E-20  1.80932E-03  0.00000E+00  1.0E-07
  7.200E+00  3.94265E-03  4.79754E-20  1.71323E-03  0.00000E+00  1.0E-07
  7.300E+00  4.05278E-03  4.54621E-20  1.62348E-03  0.00000E+00  1.0E-07
  7.400E+00  4.16442E-03  4.31123E-20  1.53957E-03  0.00000E+00  1.0E-07
  7.500E+00  4.27757E-03  4.09134E-20  1.46104E-03  0.00000E+00  1.0E-07
  7.600E+00  4.39223E-03  3.88536E-20  1.38749E-03  0.00000E+00  1.0E-07
  7.700E+00  4.50840E-03  3.69226E-20  1.31853E-03  0.00000E+00  1.0E-07
  7.800E+00  4.62608E-03  3.51108E-20  1.25383E-03  0.00000E+00  1.0E-07
  7.900E+00  4.74527E-03  3.34096E-20  1.19308E-03  0.00000E+00  1.0E-07
  8.000E+00  4.86597E-03  3.18107E-20  1.13598E-03  0.00000E+00  1.0E-07
  8.100E+00  4.98817E-03  3.03070E-20  1.08228E-03  0.00000E+00  1.0E-07
  8.200E+00  5.11188E-03  2.88916E-20  1.03174E-03  0.00000E+00  1.0E-07
  8.300E+00  5.23711E-03  2.75585E-20  9.84131E-04  0.00000E+00  1.0E-07
  8.400E+00  5.36383E-03  2.63019E-20  9.39258E-04  0.00000E+00  1.0E-07
  8.500E+00  5.49207E-03  2.51165E-20  8.96927E-04  0.00000E+00  1.0E-07
  8.600E+00  5.62181E-03  2.39977E-20  8.56972E-04  0.00000E+00  1.0E-07
  8.700E+00  5.75306E-03  2.29409E-20  8.19233E-04  0.00000E+00  1.0E-07
  8.800E+00  5.88581E-03  2.19420E-20  7.83565E-04  0.00000E+00  1.0E-07
  8.900E+00  6.02007E-03  2.09973E-20  7.49826E-04  0.00000E+00  1.0E-07
  9.000E+00  6.15583E-03  2.01032E-20  7.17899E-04  0.00000E+00  1.0E-07
  9.100E+00  6.29310E-03  1.92566E-20  6.87666E-04  0.00000E+00  1.0E-07
  9.200E+00  6.43187E-03  1.84544E-20  6.59020E-04  0.00000E+00  1.0E-07
  9.300E+00  6.57214E-03  1.76938E-20  6.31859E-04  0.00000E+00  1.0E-07
  9.400E+00  6.71392E-03  1.69724E-20  6.06094E-04  0.00000E+00  1.0E-07
  9.500E+00  6.85720E-03  1.62876E-20  5.81640E-04  0.00000E+00  1.0E-07
  9.600E+00  7.00198E-03  1.56372E-20  5.58416E-04  0.00000E+00  1.0E-07
  9.700E+00  7.14827E-03  1.50193E-20  5.36348E-04  0.00000E+00  1.0E-07
  9.800E+00  7.29605E-03  1.44318E-20  5.15368E-04  0.00000E+00  1.0E-07
  9.900E+00  7.44534E-03  1.38730E-20  4.95412E-04  0.00000E+00  1.0E-07
  1.000E+01  7.59612E-03  1.33411E-20  4.76421E-04  0.00000E+00  1.0E-07
  1.025E+01  7.97965E-03  1.21198E-20  4.32806E-04  0.00000E+00  1.0E-07
  1.050E+01  8.37255E-03  1.10361E-20  3.94108E-04  0.00000E+00  1.0E-07
  1.075E+01  8.77480E-03  1.00719E-20  3.59674E-04  0.00000E+00  1.0E-07
  1.100E+01  9.18641E-03  9.21154E-21  3.28950E-04  0.00000E+00  1.0E-07
  1.125E+01  9.60736E-03  8.44189E-21  3.01465E-04  0.00000E+00  1.0E-07
  1.150E+01  1.00376E-02  7.75166E-21  2.76817E-04  0.00000E+00  1.0E-07
  1.175E+01  1.04773E-02  7.13119E-21  2.54659E-04  0.00000E+00  1.0E-07
  1.200E+01  1.09262E-02  6.57213E-21  2.34695E-04  0.00000E+00  1.0E-07
  1.225E+01  1.13844E-02  6.06731E-21  2.16668E-04  0.00000E+00  1.0E-07
  1.250E+01  1.18520E-02  5.61051E-21  2.00355E-04  0.00000E+00  1.0E-07
  1.275E+01  1.23288E-02  5.19631E-21  1.85564E-04  0.00000E+00  1.0E-07
  1.300E+01  1.28150E-02  4.82003E-21  1.72126E-04  0.00000E+00  1.0E-07
  1.325E+01  1.33104E-02  4.47753E-21  1.59895E-04  0.00000E+00  1.0E-07
  1.350E+01  1.38150E-02  4.16526E-21  1.48744E-04  0.00000E+00  1.0E-07
  1.375E+01  1.43290E-02  3.88002E-21  1.38558E-04  0.00000E+00  1.0E-07
  1.400E+01  1.48521E-02  3.61905E-21  1.29239E-04  0.00000E+00  1.0E-07
  1.425E+01  1.53845E-02  3.37990E-21  1.20698E-04  0.00000E+00  1.0E-07
  1.450E+01  1.59262E-02  3.16041E-21  1.12860E-04  0.00000E+00  1.0E-07
  1.475E+01  1.64770E-02  2.95866E-21  1.05656E-04  0.00000E+00  1.0E-07
  1.500E+01  1.70371E-02  2.77293E-21  9.90232E-05  0.00000E+00  1.0E-07
  1.525E+01  1.76063E-02  2.60173E-21  9.29095E-05  0.00000E+00  1.0E-07
