 #
 # Subroutine ELSEPA. Elastic scattering of electrons and positrons
 #                    by neutral atoms and positive ions
 #
 # Projectile: electron
 # Kinetic energy = 3.70000E+06 eV = 1.35973E+05 a.u.
 #
 # WARNING: High-energy factorization with free-atom DF screening.
 #          Absorption, polarization and exchange corrections are
 #          switched off.
 #          Phase shifts are calculated for the bare nucleus.
 #          Scattering amplitudes are not evaluated.
 #
 # Element: Lr,  Z = 103,  atomic weight = 2.62000E+02 g/mol
 #
 # Nuclear model: Fermi distribution
 #                Average radius = 6.84675E-13 cm
 #                Skin thickness = 5.46000E-14 cm
 #
 # Number of electrons =103
 #
 # Total elastic cross section = 1.17900E-17 cm**2 = 4.21028E-01 a0**2
 # 1st transport cross section = 1.02168E-21 cm**2 = 3.64847E-05 a0**2
 # 2nd transport cross section = 2.58991E-21 cm**2 = 9.24874E-05 a0**2
 #
 #
 # Differential cross section:                       MU=(1-COS(THETA))/2
 #
 #  THETA        MU          DCS          DCS        Sherman      error
 #  (deg)                 (cm**2/sr)   (a0**2/sr)    function
 #----------------------------------------------------------------------
  0.000E+00  0.00000E+00  1.57639E-12  5.62939E+04  0.00000E+00  1.0E-05
  1.000E-04  7.61557E-13  1.57638E-12  5.62936E+04  0.00000E+00  1.0E-05
  1.250E-04  1.18994E-12  1.57638E-12  5.62934E+04  0.00000E+00  1.0E-05
  1.500E-04  1.71346E-12  1.57637E-12  5.62932E+04  0.00000E+00  1.0E-05
  1.750E-04  2.33225E-12  1.57636E-12  5.62930E+04  0.00000E+00  1.0E-05
  2.000E-04  3.04617E-12  1.57636E-12  5.62927E+04  0.00000E+00  1.0E-05
  2.250E-04  3.85530E-12  1.57635E-12  5.62924E+04  0.00000E+00  1.0E-05
  2.500E-04  4.75964E-12  1.57634E-12  5.62920E+04  0.00000E+00  1.0E-05
  2.750E-04  5.75917E-12  1.57633E-12  5.62916E+04  0.00000E+00  1.0E-05
  3.000E-04  6.85391E-12  1.57631E-12  5.62912E+04  0.00000E+00  1.0E-05
  3.250E-04  8.04379E-12  1.57630E-12  5.62907E+04  0.00000E+00  1.0E-05
  3.500E-04  9.32893E-12  1.57629E-12  5.62902E+04  0.00000E+00  1.0E-05
  3.750E-04  1.07092E-11  1.57627E-12  5.62896E+04  0.00000E+00  1.0E-05
  4.000E-04  1.21847E-11  1.57625E-12  5.62890E+04  0.00000E+00  1.0E-05
  4.250E-04  1.37554E-11  1.57624E-12  5.62884E+04  0.00000E+00  1.0E-05
  4.500E-04  1.54213E-11  1.57622E-12  5.62877E+04  0.00000E+00  1.0E-05
  4.750E-04  1.71823E-11  1.57620E-12  5.62870E+04  0.00000E+00  1.0E-05
  5.000E-04  1.90386E-11  1.57618E-12  5.62862E+04  0.00000E+00  1.0E-05
  5.250E-04  2.09900E-11  1.57615E-12  5.62855E+04  0.00000E+00  1.0E-05
  5.500E-04  2.30367E-11  1.57613E-12  5.62846E+04  0.00000E+00  1.0E-05
  5.750E-04  2.51785E-11  1.57611E-12  5.62838E+04  0.00000E+00  1.0E-05
  6.000E-04  2.74156E-11  1.57608E-12  5.62829E+04  0.00000E+00  1.0E-05
  6.250E-04  2.97478E-11  1.57605E-12  5.62819E+04  0.00000E+00  1.0E-05
  6.500E-04  3.21752E-11  1.57603E-12  5.62809E+04  0.00000E+00  1.0E-05
  6.750E-04  3.46979E-11  1.57600E-12  5.62799E+04  0.00000E+00  1.0E-05
  7.000E-04  3.73157E-11  1.57597E-12  5.62789E+04  0.00000E+00  1.0E-05
  7.250E-04  4.00286E-11  1.57594E-12  5.62778E+04  0.00000E+00  1.0E-05
  7.500E-04  4.28368E-11  1.57591E-12  5.62766E+04  0.00000E+00  1.0E-05
  7.750E-04  4.57402E-11  1.57587E-12  5.62754E+04  0.00000E+00  1.0E-05
  8.000E-04  4.87388E-11  1.57584E-12  5.62742E+04  0.00000E+00  1.0E-05
  8.250E-04  5.18325E-11  1.57580E-12  5.62730E+04  0.00000E+00  1.0E-05
  8.500E-04  5.50215E-11  1.57577E-12  5.62717E+04  0.00000E+00  1.0E-05
  8.750E-04  5.83057E-11  1.57573E-12  5.62704E+04  0.00000E+00  1.0E-05
  9.000E-04  6.16850E-11  1.57569E-12  5.62690E+04  0.00000E+00  1.0E-05
  9.250E-04  6.51595E-11  1.57565E-12  5.62676E+04  0.00000E+00  1.0E-05
  9.500E-04  6.87293E-11  1.57561E-12  5.62661E+04  0.00000E+00  1.0E-05
  9.750E-04  7.23943E-11  1.57557E-12  5.62647E+04  0.00000E+00  1.0E-05
  1.000E-03  7.61544E-11  1.57553E-12  5.62631E+04  0.00000E+00  1.0E-05
  1.250E-03  1.18991E-10  1.57504E-12  5.62458E+04  0.00000E+00  1.0E-05
  1.500E-03  1.71347E-10  1.57445E-12  5.62247E+04  0.00000E+00  1.0E-05
  1.750E-03  2.33223E-10  1.57375E-12  5.61997E+04  0.00000E+00  1.0E-05
  2.000E-03  3.04617E-10  1.57294E-12  5.61708E+04  0.00000E+00  1.0E-05
  2.250E-03  3.85531E-10  1.57203E-12  5.61382E+04  0.00000E+00  1.0E-05
  2.500E-03  4.75965E-10  1.57101E-12  5.61018E+04  0.00000E+00  1.0E-05
  2.750E-03  5.75917E-10  1.56988E-12  5.60616E+04  0.00000E+00  1.0E-05
  3.000E-03  6.85389E-10  1.56865E-12  5.60176E+04  0.00000E+00  1.0E-05
  3.250E-03  8.04380E-10  1.56731E-12  5.59698E+04  0.00000E+00  1.0E-05
  3.500E-03  9.32891E-10  1.56587E-12  5.59183E+04  0.00000E+00  1.0E-05
  3.750E-03  1.07092E-09  1.56433E-12  5.58631E+04  0.00000E+00  1.0E-05
  4.000E-03  1.21847E-09  1.56268E-12  5.58042E+04  0.00000E+00  1.0E-05
  4.250E-03  1.37554E-09  1.56093E-12  5.57416E+04  0.00000E+00  1.0E-05
  4.500E-03  1.54213E-09  1.55907E-12  5.56754E+04  0.00000E+00  1.0E-05
  4.750E-03  1.71823E-09  1.55711E-12  5.56056E+04  0.00000E+00  1.0E-05
  5.000E-03  1.90386E-09  1.55506E-12  5.55321E+04  0.00000E+00  1.0E-05
  5.250E-03  2.09900E-09  1.55290E-12  5.54550E+04  0.00000E+00  1.0E-05
  5.500E-03  2.30367E-09  1.55064E-12  5.53744E+04  0.00000E+00  1.0E-05
  5.750E-03  2.51785E-09  1.54829E-12  5.52903E+04  0.00000E+00  1.0E-05
  6.000E-03  2.74156E-09  1.54583E-12  5.52027E+04  0.00000E+00  1.0E-05
  6.250E-03  2.97478E-09  1.54328E-12  5.51117E+04  0.00000E+00  1.0E-05
  6.500E-03  3.21752E-09  1.54064E-12  5.50172E+04  0.00000E+00  1.0E-05
  6.750E-03  3.46978E-09  1.53790E-12  5.49193E+04  0.00000E+00  1.0E-05
  7.000E-03  3.73156E-09  1.53506E-12  5.48181E+04  0.00000E+00  1.0E-05
  7.250E-03  4.00286E-09  1.53213E-12  5.47135E+04  0.00000E+00  1.0E-05
  7.500E-03  4.28368E-09  1.52911E-12  5.46057E+04  0.00000E+00  1.0E-05
  7.750E-03  4.57402E-09  1.52600E-12  5.44946E+04  0.00000E+00  1.0E-05
  8.000E-03  4.87388E-09  1.52280E-12  5.43803E+04  0.00000E+00  1.0E-05
  8.250E-03  5.18326E-09  1.51951E-12  5.42629E+04  0.00000E+00  1.0E-05
  8.500E-03  5.50215E-09  1.51614E-12  5.41423E+04  0.00000E+00  1.0E-05
  8.750E-03  5.83057E-09  1.51267E-12  5.40186E+04  0.00000E+00  1.0E-05
  9.000E-03  6.16850E-09  1.50913E-12  5.38919E+04  0.00000E+00  1.0E-05
  9.250E-03  6.51596E-09  1.50549E-12  5.37622E+04  0.00000E+00  1.0E-05
  9.500E-03  6.87293E-09  1.50178E-12  5.36295E+04  0.00000E+00  1.0E-05
  9.750E-03  7.23942E-09  1.49798E-12  5.34939E+04  0.00000E+00  1.0E-05
  1.000E-02  7.61544E-09  1.49410E-12  5.33555E+04  0.00000E+00  1.0E-05
  1.250E-02  1.18991E-08  1.45121E-12  5.18237E+04  0.00000E+00  1.0E-05
  1.500E-02  1.71347E-08  1.40177E-12  5.00581E+04  0.00000E+00  1.0E-05
  1.750E-02  2.33223E-08  1.34727E-12  4.81118E+04  0.00000E+00  1.0E-05
  2.000E-02  3.04617E-08  1.28914E-12  4.60362E+04  0.00000E+00  1.0E-05
  2.250E-02  3.85531E-08  1.22873E-12  4.38788E+04  0.00000E+00  1.0E-05
  2.500E-02  4.75965E-08  1.16728E-12  4.16844E+04  0.00000E+00  1.0E-05
  2.750E-02  5.75917E-08  1.10589E-12  3.94922E+04  0.00000E+00  1.0E-05
  3.000E-02  6.85389E-08  1.04547E-12  3.73343E+04  0.00000E+00  1.0E-05
  3.250E-02  8.04380E-08  9.86684E-13  3.52351E+04  0.00000E+00  1.0E-05
  3.500E-02  9.32891E-08  9.30071E-13  3.32134E+04  0.00000E+00  1.0E-05
  3.750E-02  1.07092E-07  8.76044E-13  3.12841E+04  0.00000E+00  1.0E-05
  4.000E-02  1.21847E-07  8.24845E-13  2.94558E+04  0.00000E+00  1.0E-05
  4.250E-02  1.37554E-07  7.76592E-13  2.77326E+04  0.00000E+00  1.0E-05
  4.500E-02  1.54213E-07  7.31274E-13  2.61143E+04  0.00000E+00  1.0E-05
  4.750E-02  1.71823E-07  6.88912E-13  2.46015E+04  0.00000E+00  1.0E-05
  5.000E-02  1.90386E-07  6.49422E-13  2.31913E+04  0.00000E+00  1.0E-05
  5.250E-02  2.09900E-07  6.12685E-13  2.18794E+04  0.00000E+00  1.0E-05
  5.500E-02  2.30367E-07  5.78461E-13  2.06572E+04  0.00000E+00  1.0E-05
  5.750E-02  2.51785E-07  5.46673E-13  1.95221E+04  0.00000E+00  1.0E-05
  6.000E-02  2.74156E-07  5.17161E-13  1.84682E+04  0.00000E+00  1.0E-05
  6.250E-02  2.97478E-07  4.89763E-13  1.74897E+04  0.00000E+00  1.0E-05
  6.500E-02  3.21752E-07  4.64221E-13  1.65776E+04  0.00000E+00  1.0E-05
  6.750E-02  3.46978E-07  4.40449E-13  1.57287E+04  0.00000E+00  1.0E-05
  7.000E-02  3.73156E-07  4.18323E-13  1.49386E+04  0.00000E+00  1.0E-05
  7.250E-02  4.00286E-07  3.97709E-13  1.42025E+04  0.00000E+00  1.0E-05
  7.500E-02  4.28368E-07  3.78407E-13  1.35132E+04  0.00000E+00  1.0E-05
  7.750E-02  4.57402E-07  3.60327E-13  1.28675E+04  0.00000E+00  1.0E-05
  8.000E-02  4.87388E-07  3.43412E-13  1.22635E+04  0.00000E+00  1.0E-05
  8.250E-02  5.18325E-07  3.27566E-13  1.16976E+04  0.00000E+00  1.0E-05
  8.500E-02  5.50215E-07  3.12653E-13  1.11650E+04  0.00000E+00  1.0E-05
  8.750E-02  5.83057E-07  2.98577E-13  1.06624E+04  0.00000E+00  1.0E-05
  9.000E-02  6.16850E-07  2.85334E-13  1.01895E+04  0.00000E+00  1.0E-05
  9.250E-02  6.51596E-07  2.72861E-13  9.74403E+03  0.00000E+00  1.0E-05
  9.500E-02  6.87293E-07  2.61073E-13  9.32310E+03  0.00000E+00  1.0E-05
  9.750E-02  7.23942E-07  2.49866E-13  8.92286E+03  0.00000E+00  1.0E-05
  1.000E-01  7.61543E-07  2.39272E-13  8.54455E+03  0.00000E+00  1.0E-05
  1.250E-01  1.18991E-06  1.58336E-13  5.65426E+03  0.00000E+00  1.0E-05
  1.500E-01  1.71347E-06  1.05999E-13  3.78530E+03  0.00000E+00  1.0E-05
  1.750E-01  2.33223E-06  7.40367E-14  2.64390E+03  0.00000E+00  1.0E-05
  2.000E-01  3.04617E-06  5.29345E-14  1.89033E+03  0.00000E+00  1.0E-05
  2.250E-01  3.85531E-06  3.83862E-14  1.37079E+03  0.00000E+00  1.0E-05
  2.500E-01  4.75964E-06  2.84164E-14  1.01477E+03  0.00000E+00  1.0E-05
  2.750E-01  5.75916E-06  2.15022E-14  7.67859E+02  0.00000E+00  1.0E-05
  3.000E-01  6.85388E-06  1.65782E-14  5.92018E+02  0.00000E+00  1.0E-05
  3.250E-01  8.04378E-06  1.29730E-14  4.63275E+02  0.00000E+00  1.0E-05
  3.500E-01  9.32888E-06  1.02926E-14  3.67554E+02  0.00000E+00  1.0E-05
  3.750E-01  1.07092E-05  8.28588E-15  2.95894E+02  0.00000E+00  1.0E-05
  4.000E-01  1.21846E-05  6.75654E-15  2.41280E+02  0.00000E+00  1.0E-05
  4.250E-01  1.37553E-05  5.57068E-15  1.98933E+02  0.00000E+00  1.0E-05
  4.500E-01  1.54212E-05  4.63528E-15  1.65529E+02  0.00000E+00  1.0E-05
  4.750E-01  1.71822E-05  3.89458E-15  1.39078E+02  0.00000E+00  1.0E-05
  5.000E-01  1.90385E-05  3.29775E-15  1.17765E+02  0.00000E+00  1.0E-05
  5.250E-01  2.09899E-05  2.81896E-15  1.00667E+02  0.00000E+00  1.0E-05
  5.500E-01  2.30365E-05  2.42280E-15  8.65199E+01  0.00000E+00  1.0E-05
  5.750E-01  2.51783E-05  2.09481E-15  7.48069E+01  0.00000E+00  1.0E-05
  6.000E-01  2.74153E-05  1.82108E-15  6.50321E+01  0.00000E+00  1.0E-05
  6.250E-01  2.97475E-05  1.59122E-15  5.68235E+01  0.00000E+00  1.0E-05
  6.500E-01  3.21749E-05  1.39682E-15  4.98813E+01  0.00000E+00  1.0E-05
  6.750E-01  3.46974E-05  1.23037E-15  4.39375E+01  0.00000E+00  1.0E-05
  7.000E-01  3.73152E-05  1.08813E-15  3.88577E+01  0.00000E+00  1.0E-05
  7.250E-01  4.00281E-05  9.66259E-16  3.45057E+01  0.00000E+00  1.0E-05
  7.500E-01  4.28362E-05  8.60995E-16  3.07467E+01  0.00000E+00  1.0E-05
  7.750E-01  4.57395E-05  7.69767E-16  2.74889E+01  0.00000E+00  1.0E-05
  8.000E-01  4.87380E-05  6.90464E-16  2.46569E+01  0.00000E+00  1.0E-05
  8.250E-01  5.18317E-05  6.21214E-16  2.21840E+01  0.00000E+00  1.0E-05
  8.500E-01  5.50205E-05  5.60381E-16  2.00116E+01  0.00000E+00  1.0E-05
  8.750E-01  5.83045E-05  5.06740E-16  1.80960E+01  0.00000E+00  1.0E-05
  9.000E-01  6.16838E-05  4.59427E-16  1.64064E+01  0.00000E+00  1.0E-05
  9.250E-01  6.51582E-05  4.17560E-16  1.49113E+01  0.00000E+00  1.0E-05
  9.500E-01  6.87277E-05  3.80372E-16  1.35833E+01  0.00000E+00  1.0E-05
  9.750E-01  7.23925E-05  3.47208E-16  1.23990E+01  0.00000E+00  1.0E-05
  1.000E+00  7.61524E-05  3.17644E-16  1.13433E+01  0.00000E+00  1.4E-05
  1.100E+00  9.21439E-05  2.26961E-16  8.10492E+00  0.00000E+00  1.1E-05
  1.200E+00  1.09658E-04  1.66661E-16  5.95157E+00  0.00000E+00  5.8E-06
  1.300E+00  1.28695E-04  1.25164E-16  4.46968E+00  0.00000E+00  1.2E-06
  1.400E+00  1.49255E-04  9.57299E-17  3.41858E+00  0.00000E+00  2.2E-06
  1.500E+00  1.71338E-04  7.45183E-17  2.66110E+00  0.00000E+00  4.1E-06
  1.600E+00  1.94942E-04  5.88880E-17  2.10293E+00  0.00000E+00  4.4E-06
  1.700E+00  2.20070E-04  4.71486E-17  1.68371E+00  0.00000E+00  3.5E-06
  1.800E+00  2.46720E-04  3.81801E-17  1.36344E+00  0.00000E+00  2.0E-06
  1.900E+00  2.74892E-04  3.12698E-17  1.11667E+00  0.00000E+00  3.3E-07
  2.000E+00  3.04586E-04  2.58692E-17  9.23806E-01  0.00000E+00  1.0E-06
  2.100E+00  3.35803E-04  2.15982E-17  7.71287E-01  0.00000E+00  1.8E-06
  2.200E+00  3.68542E-04  1.81738E-17  6.49000E-01  0.00000E+00  2.0E-06
  2.300E+00  4.02802E-04  1.54100E-17  5.50301E-01  0.00000E+00  1.6E-06
  2.400E+00  4.38585E-04  1.31574E-17  4.69859E-01  0.00000E+00  9.0E-07
  2.500E+00  4.75889E-04  1.13047E-17  4.03699E-01  0.00000E+00  1.0E-07
  2.600E+00  5.14715E-04  9.76642E-18  3.48765E-01  0.00000E+00  5.8E-07
  2.700E+00  5.55063E-04  8.48156E-18  3.02882E-01  0.00000E+00  9.9E-07
  2.800E+00  5.96931E-04  7.40211E-18  2.64334E-01  0.00000E+00  1.1E-06
  2.900E+00  6.40321E-04  6.48949E-18  2.31744E-01  0.00000E+00  8.8E-07
  3.000E+00  6.85233E-04  5.71222E-18  2.03987E-01  0.00000E+00  4.8E-07
  3.100E+00  7.31665E-04  5.04749E-18  1.80249E-01  0.00000E+00  1.0E-07
  3.200E+00  7.79618E-04  4.47674E-18  1.59867E-01  0.00000E+00  3.8E-07
  3.300E+00  8.29092E-04  3.98446E-18  1.42287E-01  0.00000E+00  6.2E-07
  3.400E+00  8.80086E-04  3.55757E-18  1.27043E-01  0.00000E+00  6.6E-07
  3.500E+00  9.32601E-04  3.18606E-18  1.13776E-01  0.00000E+00  5.3E-07
  3.600E+00  9.86636E-04  2.86186E-18  1.02199E-01  0.00000E+00  2.8E-07
  3.700E+00  1.04219E-03  2.57787E-18  9.20574E-02  0.00000E+00  1.0E-07
  3.800E+00  1.09927E-03  2.32822E-18  8.31423E-02  0.00000E+00  2.6E-07
  3.900E+00  1.15786E-03  2.10793E-18  7.52755E-02  0.00000E+00  4.2E-07
  4.000E+00  1.21797E-03  1.91316E-18  6.83202E-02  0.00000E+00  4.4E-07
  4.100E+00  1.27961E-03  1.74044E-18  6.21523E-02  0.00000E+00  3.5E-07
  4.200E+00  1.34276E-03  1.58685E-18  5.66673E-02  0.00000E+00  1.7E-07
  4.300E+00  1.40743E-03  1.44977E-18  5.17721E-02  0.00000E+00  1.0E-07
  4.400E+00  1.47362E-03  1.32725E-18  4.73969E-02  0.00000E+00  2.0E-07
  4.500E+00  1.54133E-03  1.21747E-18  4.34766E-02  0.00000E+00  3.0E-07
  4.600E+00  1.61056E-03  1.11886E-18  3.99553E-02  0.00000E+00  3.1E-07
  4.700E+00  1.68131E-03  1.03004E-18  3.67833E-02  0.00000E+00  2.4E-07
  4.800E+00  1.75357E-03  9.49902E-19  3.39216E-02  0.00000E+00  1.1E-07
  4.900E+00  1.82735E-03  8.77453E-19  3.13344E-02  0.00000E+00  1.0E-07
  5.000E+00  1.90265E-03  8.11820E-19  2.89906E-02  0.00000E+00  1.5E-07
  5.100E+00  1.97947E-03  7.52224E-19  2.68624E-02  0.00000E+00  2.2E-07
  5.200E+00  2.05780E-03  6.98019E-19  2.49267E-02  0.00000E+00  2.3E-07
  5.300E+00  2.13765E-03  6.48639E-19  2.31633E-02  0.00000E+00  1.7E-07
  5.400E+00  2.21902E-03  6.03574E-19  2.15540E-02  0.00000E+00  1.0E-07
  5.500E+00  2.30190E-03  5.62368E-19  2.00825E-02  0.00000E+00  1.0E-07
  5.600E+00  2.38630E-03  5.24627E-19  1.87348E-02  0.00000E+00  1.2E-07
  5.700E+00  2.47222E-03  4.90019E-19  1.74989E-02  0.00000E+00  1.7E-07
  5.800E+00  2.55965E-03  4.58232E-19  1.63638E-02  0.00000E+00  1.7E-07
  5.900E+00  2.64859E-03  4.28991E-19  1.53195E-02  0.00000E+00  1.3E-07
  6.000E+00  2.73905E-03  4.02047E-19  1.43574E-02  0.00000E+00  1.0E-07
  6.100E+00  2.83103E-03  3.77197E-19  1.34699E-02  0.00000E+00  1.0E-07
  6.200E+00  2.92452E-03  3.54246E-19  1.26504E-02  0.00000E+00  1.0E-07
  6.300E+00  3.01952E-03  3.33021E-19  1.18924E-02  0.00000E+00  1.3E-07
  6.400E+00  3.11604E-03  3.13361E-19  1.11903E-02  0.00000E+00  1.3E-07
  6.500E+00  3.21407E-03  2.95137E-19  1.05395E-02  0.00000E+00  1.0E-07
  6.600E+00  3.31362E-03  2.78224E-19  9.93556E-03  0.00000E+00  1.0E-07
  6.700E+00  3.41468E-03  2.62510E-19  9.37441E-03  0.00000E+00  1.0E-07
  6.800E+00  3.51725E-03  2.47888E-19  8.85225E-03  0.00000E+00  1.0E-07
  6.900E+00  3.62133E-03  2.34274E-19  8.36607E-03  0.00000E+00  1.1E-07
  7.000E+00  3.72692E-03  2.21585E-19  7.91293E-03  0.00000E+00  1.0E-07
  7.100E+00  3.83403E-03  2.09746E-19  7.49016E-03  0.00000E+00  1.0E-07
  7.200E+00  3.94265E-03  1.98687E-19  7.09523E-03  0.00000E+00  1.0E-07
  7.300E+00  4.05278E-03  1.88348E-19  6.72603E-03  0.00000E+00  1.0E-07
  7.400E+00  4.16442E-03  1.78675E-19  6.38062E-03  0.00000E+00  1.0E-07
  7.500E+00  4.27757E-03  1.69618E-19  6.05716E-03  0.00000E+00  1.0E-07
  7.600E+00  4.39223E-03  1.61127E-19  5.75395E-03  0.00000E+00  1.0E-07
  7.700E+00  4.50840E-03  1.53161E-19  5.46948E-03  0.00000E+00  1.0E-07
  7.800E+00  4.62608E-03  1.45683E-19  5.20243E-03  0.00000E+00  1.0E-07
  7.900E+00  4.74527E-03  1.38657E-19  4.95153E-03  0.00000E+00  1.0E-07
  8.000E+00  4.86597E-03  1.32050E-19  4.71559E-03  0.00000E+00  1.0E-07
  8.100E+00  4.98817E-03  1.25832E-19  4.49353E-03  0.00000E+00  1.0E-07
  8.200E+00  5.11188E-03  1.19976E-19  4.28443E-03  0.00000E+00  1.0E-07
  8.300E+00  5.23711E-03  1.14458E-19  4.08738E-03  0.00000E+00  1.0E-07
  8.400E+00  5.36383E-03  1.09255E-19  3.90156E-03  0.00000E+00  1.0E-07
  8.500E+00  5.49207E-03  1.04343E-19  3.72617E-03  0.00000E+00  1.0E-07
  8.600E+00  5.62181E-03  9.97058E-20  3.56056E-03  0.00000E+00  1.0E-07
  8.700E+00  5.75306E-03  9.53238E-20  3.40408E-03  0.00000E+00  1.0E-07
  8.800E+00  5.88581E-03  9.11807E-20  3.25612E-03  0.00000E+00  1.0E-07
  8.900E+00  6.02007E-03  8.72599E-20  3.11611E-03  0.00000E+00  1.0E-07
  9.000E+00  6.15583E-03  8.35484E-20  2.98357E-03  0.00000E+00  1.0E-07
  9.100E+00  6.29310E-03  8.00328E-20  2.85802E-03  0.00000E+00  1.0E-07
  9.200E+00  6.43187E-03  7.67008E-20  2.73904E-03  0.00000E+00  1.0E-07
  9.300E+00  6.57214E-03  7.35404E-20  2.62618E-03  0.00000E+00  1.0E-07
  9.400E+00  6.71392E-03  7.05417E-20  2.51909E-03  0.00000E+00  1.0E-07
  9.500E+00  6.85720E-03  6.76949E-20  2.41743E-03  0.00000E+00  1.0E-07
  9.600E+00  7.00198E-03  6.49908E-20  2.32086E-03  0.00000E+00  1.0E-07
  9.700E+00  7.14827E-03  6.24206E-20  2.22908E-03  0.00000E+00  1.0E-07
  9.800E+00  7.29605E-03  5.99766E-20  2.14180E-03  0.00000E+00  1.0E-07
  9.900E+00  7.44534E-03  5.76515E-20  2.05877E-03  0.00000E+00  1.0E-07
  1.000E+01  7.59612E-03  5.54386E-20  1.97975E-03  0.00000E+00  1.0E-07
  1.025E+01  7.97965E-03  5.03550E-20  1.79821E-03  0.00000E+00  1.0E-07
  1.050E+01  8.37255E-03  4.58432E-20  1.63709E-03  0.00000E+00  1.0E-07
  1.075E+01  8.77480E-03  4.18277E-20  1.49370E-03  0.00000E+00  1.0E-07
  1.100E+01  9.18641E-03  3.82446E-20  1.36574E-03  0.00000E+00  1.0E-07
  1.125E+01  9.60736E-03  3.50391E-20  1.25127E-03  0.00000E+00  1.0E-07
  1.150E+01  1.00376E-02  3.21646E-20  1.14862E-03  0.00000E+00  1.0E-07
  1.175E+01  1.04773E-02  2.95807E-20  1.05635E-03  0.00000E+00  1.0E-07
  1.200E+01  1.09262E-02  2.72530E-20  9.73222E-04  0.00000E+00  1.0E-07
  1.225E+01  1.13844E-02  2.51515E-20  8.98178E-04  0.00000E+00  1.0E-07
  1.250E+01  1.18520E-02  2.32505E-20  8.30289E-04  0.00000E+00  1.0E-07
  1.275E+01  1.23288E-02  2.15272E-20  7.68751E-04  0.00000E+00  1.0E-07
  1.300E+01  1.28150E-02  1.99622E-20  7.12864E-04  0.00000E+00  1.0E-07
  1.325E+01  1.33104E-02  1.85382E-20  6.62010E-04  0.00000E+00  1.0E-07
  1.350E+01  1.38150E-02  1.72405E-20  6.15669E-04  0.00000E+00  1.0E-07
  1.375E+01  1.43290E-02  1.60556E-20  5.73356E-04  0.00000E+00  1.0E-07
  1.400E+01  1.48521E-02  1.49720E-20  5.34661E-04  0.00000E+00  1.0E-07
  1.425E+01  1.53845E-02  1.39796E-20  4.99220E-04  0.00000E+00  1.0E-07
  1.450E+01  1.59262E-02  1.30692E-20  4.66710E-04  0.00000E+00  1.0E-07
  1.475E+01  1.64770E-02  1.22328E-20  4.36841E-04  0.00000E+00  1.0E-07
  1.500E+01  1.70371E-02  1.14633E-20  4.09360E-04  0.00000E+00  1.0E-07
  1.525E+01  1.76063E-02  1.07543E-20  3.84043E-04  0.00000E+00  1.0E-07
