 #
 # Subroutine ELSEPA. Elastic scattering of electrons and positrons
 #                    by neutral atoms and positive ions
 #
 # Projectile: electron
 # Kinetic energy = 3.70000E+06 eV = 1.35973E+05 a.u.
 #
 # WARNING: High-energy factorization with free-atom DF screening.
 #          Absorption, polarization and exchange corrections are
 #          switched off.
 #          Phase shifts are calculated for the bare nucleus.
 #          Scattering amplitudes are not evaluated.
 #
 # Element: Mn,  Z =  25,  atomic weight = 5.49380E+01 g/mol
 #
 # Nuclear model: Fermi distribution
 #                Average radius = 4.06763E-13 cm
 #                Skin thickness = 5.46000E-14 cm
 #
 # Number of electrons = 25
 #
 # Total elastic cross section = 1.98108E-18 cm**2 = 7.07457E-02 a0**2
 # 1st transport cross section = 5.41265E-23 cm**2 = 1.93289E-06 a0**2
 # 2nd transport cross section = 1.53354E-22 cm**2 = 5.47637E-06 a0**2
 #
 #
 # Differential cross section:                       MU=(1-COS(THETA))/2
 #
 #  THETA        MU          DCS          DCS        Sherman      error
 #  (deg)                 (cm**2/sr)   (a0**2/sr)    function
 #----------------------------------------------------------------------
  0.000E+00  0.00000E+00  3.79173E-13  1.35405E+04  0.00000E+00  1.0E-05
  1.000E-04  7.61557E-13  3.79171E-13  1.35404E+04  0.00000E+00  1.0E-05
  1.250E-04  1.18994E-12  3.79170E-13  1.35404E+04  0.00000E+00  1.0E-05
  1.500E-04  1.71346E-12  3.79168E-13  1.35403E+04  0.00000E+00  1.0E-05
  1.750E-04  2.33225E-12  3.79167E-13  1.35403E+04  0.00000E+00  1.0E-05
  2.000E-04  3.04617E-12  3.79165E-13  1.35402E+04  0.00000E+00  1.0E-05
  2.250E-04  3.85530E-12  3.79162E-13  1.35401E+04  0.00000E+00  1.0E-05
  2.500E-04  4.75964E-12  3.79160E-13  1.35400E+04  0.00000E+00  1.0E-05
  2.750E-04  5.75917E-12  3.79157E-13  1.35399E+04  0.00000E+00  1.0E-05
  3.000E-04  6.85391E-12  3.79154E-13  1.35398E+04  0.00000E+00  1.0E-05
  3.250E-04  8.04379E-12  3.79151E-13  1.35397E+04  0.00000E+00  1.0E-05
  3.500E-04  9.32893E-12  3.79147E-13  1.35396E+04  0.00000E+00  1.0E-05
  3.750E-04  1.07092E-11  3.79143E-13  1.35395E+04  0.00000E+00  1.0E-05
  4.000E-04  1.21847E-11  3.79139E-13  1.35393E+04  0.00000E+00  1.0E-05
  4.250E-04  1.37554E-11  3.79135E-13  1.35391E+04  0.00000E+00  1.0E-05
  4.500E-04  1.54213E-11  3.79130E-13  1.35390E+04  0.00000E+00  1.0E-05
  4.750E-04  1.71823E-11  3.79125E-13  1.35388E+04  0.00000E+00  1.0E-05
  5.000E-04  1.90386E-11  3.79120E-13  1.35386E+04  0.00000E+00  1.0E-05
  5.250E-04  2.09900E-11  3.79115E-13  1.35384E+04  0.00000E+00  1.0E-05
  5.500E-04  2.30367E-11  3.79109E-13  1.35382E+04  0.00000E+00  1.0E-05
  5.750E-04  2.51785E-11  3.79103E-13  1.35380E+04  0.00000E+00  1.0E-05
  6.000E-04  2.74156E-11  3.79097E-13  1.35378E+04  0.00000E+00  1.0E-05
  6.250E-04  2.97478E-11  3.79090E-13  1.35376E+04  0.00000E+00  1.0E-05
  6.500E-04  3.21752E-11  3.79083E-13  1.35373E+04  0.00000E+00  1.0E-05
  6.750E-04  3.46979E-11  3.79076E-13  1.35371E+04  0.00000E+00  1.0E-05
  7.000E-04  3.73157E-11  3.79069E-13  1.35368E+04  0.00000E+00  1.0E-05
  7.250E-04  4.00286E-11  3.79062E-13  1.35365E+04  0.00000E+00  1.0E-05
  7.500E-04  4.28368E-11  3.79054E-13  1.35363E+04  0.00000E+00  1.0E-05
  7.750E-04  4.57402E-11  3.79046E-13  1.35360E+04  0.00000E+00  1.0E-05
  8.000E-04  4.87388E-11  3.79037E-13  1.35357E+04  0.00000E+00  1.0E-05
  8.250E-04  5.18325E-11  3.79029E-13  1.35354E+04  0.00000E+00  1.0E-05
  8.500E-04  5.50215E-11  3.79020E-13  1.35350E+04  0.00000E+00  1.0E-05
  8.750E-04  5.83057E-11  3.79011E-13  1.35347E+04  0.00000E+00  1.0E-05
  9.000E-04  6.16850E-11  3.79001E-13  1.35344E+04  0.00000E+00  1.0E-05
  9.250E-04  6.51595E-11  3.78991E-13  1.35340E+04  0.00000E+00  1.0E-05
  9.500E-04  6.87293E-11  3.78981E-13  1.35337E+04  0.00000E+00  1.0E-05
  9.750E-04  7.23943E-11  3.78971E-13  1.35333E+04  0.00000E+00  1.0E-05
  1.000E-03  7.61544E-11  3.78961E-13  1.35329E+04  0.00000E+00  1.0E-05
  1.250E-03  1.18991E-10  3.78841E-13  1.35287E+04  0.00000E+00  1.0E-05
  1.500E-03  1.71347E-10  3.78695E-13  1.35235E+04  0.00000E+00  1.0E-05
  1.750E-03  2.33223E-10  3.78523E-13  1.35173E+04  0.00000E+00  1.0E-05
  2.000E-03  3.04617E-10  3.78324E-13  1.35102E+04  0.00000E+00  1.0E-05
  2.250E-03  3.85531E-10  3.78099E-13  1.35022E+04  0.00000E+00  1.0E-05
  2.500E-03  4.75965E-10  3.77848E-13  1.34932E+04  0.00000E+00  1.0E-05
  2.750E-03  5.75917E-10  3.77570E-13  1.34833E+04  0.00000E+00  1.0E-05
  3.000E-03  6.85389E-10  3.77267E-13  1.34724E+04  0.00000E+00  1.0E-05
  3.250E-03  8.04380E-10  3.76937E-13  1.34607E+04  0.00000E+00  1.0E-05
  3.500E-03  9.32891E-10  3.76582E-13  1.34480E+04  0.00000E+00  1.0E-05
  3.750E-03  1.07092E-09  3.76201E-13  1.34344E+04  0.00000E+00  1.0E-05
  4.000E-03  1.21847E-09  3.75794E-13  1.34199E+04  0.00000E+00  1.0E-05
  4.250E-03  1.37554E-09  3.75362E-13  1.34044E+04  0.00000E+00  1.0E-05
  4.500E-03  1.54213E-09  3.74904E-13  1.33881E+04  0.00000E+00  1.0E-05
  4.750E-03  1.71823E-09  3.74422E-13  1.33708E+04  0.00000E+00  1.0E-05
  5.000E-03  1.90386E-09  3.73914E-13  1.33527E+04  0.00000E+00  1.0E-05
  5.250E-03  2.09900E-09  3.73381E-13  1.33337E+04  0.00000E+00  1.0E-05
  5.500E-03  2.30367E-09  3.72824E-13  1.33138E+04  0.00000E+00  1.0E-05
  5.750E-03  2.51785E-09  3.72242E-13  1.32930E+04  0.00000E+00  1.0E-05
  6.000E-03  2.74156E-09  3.71636E-13  1.32714E+04  0.00000E+00  1.0E-05
  6.250E-03  2.97478E-09  3.71006E-13  1.32489E+04  0.00000E+00  1.0E-05
  6.500E-03  3.21752E-09  3.70352E-13  1.32255E+04  0.00000E+00  1.0E-05
  6.750E-03  3.46978E-09  3.69674E-13  1.32013E+04  0.00000E+00  1.0E-05
  7.000E-03  3.73156E-09  3.68972E-13  1.31762E+04  0.00000E+00  1.0E-05
  7.250E-03  4.00286E-09  3.68248E-13  1.31504E+04  0.00000E+00  1.0E-05
  7.500E-03  4.28368E-09  3.67500E-13  1.31237E+04  0.00000E+00  1.0E-05
  7.750E-03  4.57402E-09  3.66729E-13  1.30961E+04  0.00000E+00  1.0E-05
  8.000E-03  4.87388E-09  3.65936E-13  1.30678E+04  0.00000E+00  1.0E-05
  8.250E-03  5.18326E-09  3.65121E-13  1.30387E+04  0.00000E+00  1.0E-05
  8.500E-03  5.50215E-09  3.64283E-13  1.30088E+04  0.00000E+00  1.0E-05
  8.750E-03  5.83057E-09  3.63424E-13  1.29781E+04  0.00000E+00  1.0E-05
  9.000E-03  6.16850E-09  3.62543E-13  1.29467E+04  0.00000E+00  1.0E-05
  9.250E-03  6.51596E-09  3.61641E-13  1.29144E+04  0.00000E+00  1.0E-05
  9.500E-03  6.87293E-09  3.60718E-13  1.28815E+04  0.00000E+00  1.0E-05
  9.750E-03  7.23942E-09  3.59774E-13  1.28478E+04  0.00000E+00  1.0E-05
  1.000E-02  7.61544E-09  3.58810E-13  1.28133E+04  0.00000E+00  1.0E-05
  1.250E-02  1.18991E-08  3.48110E-13  1.24312E+04  0.00000E+00  1.0E-05
  1.500E-02  1.71347E-08  3.35686E-13  1.19876E+04  0.00000E+00  1.0E-05
  1.750E-02  2.33223E-08  3.21923E-13  1.14961E+04  0.00000E+00  1.0E-05
  2.000E-02  3.04617E-08  3.07163E-13  1.09690E+04  0.00000E+00  1.0E-05
  2.250E-02  3.85531E-08  2.91702E-13  1.04169E+04  0.00000E+00  1.0E-05
  2.500E-02  4.75965E-08  2.75865E-13  9.85133E+03  0.00000E+00  1.0E-05
  2.750E-02  5.75917E-08  2.59965E-13  9.28353E+03  0.00000E+00  1.0E-05
  3.000E-02  6.85389E-08  2.44244E-13  8.72212E+03  0.00000E+00  1.0E-05
  3.250E-02  8.04380E-08  2.28874E-13  8.17324E+03  0.00000E+00  1.0E-05
  3.500E-02  9.32891E-08  2.14006E-13  7.64231E+03  0.00000E+00  1.0E-05
  3.750E-02  1.07092E-07  1.99797E-13  7.13487E+03  0.00000E+00  1.0E-05
  4.000E-02  1.21847E-07  1.86322E-13  6.65370E+03  0.00000E+00  1.0E-05
  4.250E-02  1.37554E-07  1.73622E-13  6.20017E+03  0.00000E+00  1.0E-05
  4.500E-02  1.54213E-07  1.61702E-13  5.77449E+03  0.00000E+00  1.0E-05
  4.750E-02  1.71823E-07  1.50595E-13  5.37786E+03  0.00000E+00  1.0E-05
  5.000E-02  1.90386E-07  1.40284E-13  5.00964E+03  0.00000E+00  1.0E-05
  5.250E-02  2.09900E-07  1.30740E-13  4.66880E+03  0.00000E+00  1.0E-05
  5.500E-02  2.30367E-07  1.21906E-13  4.35334E+03  0.00000E+00  1.0E-05
  5.750E-02  2.51785E-07  1.13764E-13  4.06260E+03  0.00000E+00  1.0E-05
  6.000E-02  2.74156E-07  1.06270E-13  3.79496E+03  0.00000E+00  1.0E-05
  6.250E-02  2.97478E-07  9.93748E-14  3.54874E+03  0.00000E+00  1.0E-05
  6.500E-02  3.21752E-07  9.30217E-14  3.32186E+03  0.00000E+00  1.0E-05
  6.750E-02  3.46978E-07  8.71763E-14  3.11312E+03  0.00000E+00  1.0E-05
  7.000E-02  3.73156E-07  8.17986E-14  2.92108E+03  0.00000E+00  1.0E-05
  7.250E-02  4.00286E-07  7.68486E-14  2.74431E+03  0.00000E+00  1.0E-05
  7.500E-02  4.28368E-07  7.22801E-14  2.58117E+03  0.00000E+00  1.0E-05
  7.750E-02  4.57402E-07  6.80619E-14  2.43053E+03  0.00000E+00  1.0E-05
  8.000E-02  4.87388E-07  6.41675E-14  2.29146E+03  0.00000E+00  1.0E-05
  8.250E-02  5.18325E-07  6.05678E-14  2.16292E+03  0.00000E+00  1.0E-05
  8.500E-02  5.50215E-07  5.72308E-14  2.04375E+03  0.00000E+00  1.0E-05
  8.750E-02  5.83057E-07  5.41304E-14  1.93303E+03  0.00000E+00  1.0E-05
  9.000E-02  6.16850E-07  5.12525E-14  1.83026E+03  0.00000E+00  1.0E-05
  9.250E-02  6.51596E-07  4.85776E-14  1.73474E+03  0.00000E+00  1.0E-05
  9.500E-02  6.87293E-07  4.60850E-14  1.64573E+03  0.00000E+00  1.0E-05
  9.750E-02  7.23942E-07  4.37523E-14  1.56242E+03  0.00000E+00  1.0E-05
  1.000E-01  7.61543E-07  4.15746E-14  1.48466E+03  0.00000E+00  1.0E-05
  1.250E-01  1.18991E-06  2.58886E-14  9.24500E+02  0.00000E+00  1.0E-05
  1.500E-01  1.71347E-06  1.66296E-14  5.93852E+02  0.00000E+00  1.0E-05
  1.750E-01  2.33223E-06  1.11837E-14  3.99377E+02  0.00000E+00  1.0E-05
  2.000E-01  3.04617E-06  7.70392E-15  2.75112E+02  0.00000E+00  1.0E-05
  2.250E-01  3.85531E-06  5.36794E-15  1.91693E+02  0.00000E+00  1.0E-05
  2.500E-01  4.75964E-06  3.81401E-15  1.36201E+02  0.00000E+00  1.0E-05
  2.750E-01  5.75916E-06  2.77095E-15  9.89525E+01  0.00000E+00  1.0E-05
  3.000E-01  6.85388E-06  2.05399E-15  7.33495E+01  0.00000E+00  1.0E-05
  3.250E-01  8.04378E-06  1.55055E-15  5.53710E+01  0.00000E+00  1.0E-05
  3.500E-01  9.32888E-06  1.19229E-15  4.25776E+01  0.00000E+00  1.0E-05
  3.750E-01  1.07092E-05  9.33556E-16  3.33379E+01  0.00000E+00  1.0E-05
  4.000E-01  1.21846E-05  7.42952E-16  2.65313E+01  0.00000E+00  1.0E-05
  4.250E-01  1.37553E-05  5.99973E-16  2.14254E+01  0.00000E+00  1.0E-05
  4.500E-01  1.54212E-05  4.90782E-16  1.75261E+01  0.00000E+00  1.0E-05
  4.750E-01  1.71822E-05  4.06212E-16  1.45061E+01  0.00000E+00  1.0E-05
  5.000E-01  1.90385E-05  3.39725E-16  1.21318E+01  0.00000E+00  1.0E-05
  5.250E-01  2.09899E-05  2.86792E-16  1.02415E+01  0.00000E+00  1.0E-05
  5.500E-01  2.30365E-05  2.43909E-16  8.71016E+00  0.00000E+00  1.0E-05
  5.750E-01  2.51783E-05  2.08926E-16  7.46087E+00  0.00000E+00  1.0E-05
  6.000E-01  2.74153E-05  1.80105E-16  6.43167E+00  0.00000E+00  1.0E-05
  6.250E-01  2.97475E-05  1.56152E-16  5.57628E+00  0.00000E+00  1.0E-05
  6.500E-01  3.21749E-05  1.36005E-16  4.85681E+00  0.00000E+00  1.0E-05
  6.750E-01  3.46974E-05  1.18993E-16  4.24932E+00  0.00000E+00  1.0E-05
  7.000E-01  3.73152E-05  1.04559E-16  3.73385E+00  0.00000E+00  1.0E-05
  7.250E-01  4.00281E-05  9.22396E-17  3.29394E+00  0.00000E+00  1.0E-05
  7.500E-01  4.28362E-05  8.16389E-17  2.91538E+00  0.00000E+00  1.0E-05
  7.750E-01  4.57395E-05  7.24892E-17  2.58864E+00  0.00000E+00  1.0E-05
  8.000E-01  4.87380E-05  6.45713E-17  2.30588E+00  0.00000E+00  1.0E-05
  8.250E-01  5.18317E-05  5.76898E-17  2.06014E+00  0.00000E+00  1.0E-05
  8.500E-01  5.50205E-05  5.16763E-17  1.84540E+00  0.00000E+00  1.0E-05
  8.750E-01  5.83045E-05  4.64035E-17  1.65710E+00  0.00000E+00  1.0E-05
  9.000E-01  6.16838E-05  4.17764E-17  1.49186E+00  0.00000E+00  1.0E-05
  9.250E-01  6.51582E-05  3.77029E-17  1.34639E+00  0.00000E+00  1.0E-05
  9.500E-01  6.87277E-05  3.41038E-17  1.21787E+00  0.00000E+00  1.0E-05
  9.750E-01  7.23925E-05  3.09119E-17  1.10388E+00  0.00000E+00  1.0E-05
  1.000E+00  7.61524E-05  2.80803E-17  1.00277E+00  0.00000E+00  3.1E-06
  1.100E+00  9.21439E-05  1.95043E-17  6.96513E-01  0.00000E+00  2.4E-06
  1.200E+00  1.09658E-04  1.39417E-17  4.97867E-01  0.00000E+00  1.4E-06
  1.300E+00  1.28695E-04  1.02189E-17  3.64923E-01  0.00000E+00  4.0E-07
  1.400E+00  1.49255E-04  7.65573E-18  2.73391E-01  0.00000E+00  4.2E-07
  1.500E+00  1.71338E-04  5.85060E-18  2.08929E-01  0.00000E+00  8.5E-07
  1.600E+00  1.94942E-04  4.54884E-18  1.62442E-01  0.00000E+00  9.5E-07
  1.700E+00  2.20070E-04  3.59093E-18  1.28234E-01  0.00000E+00  8.0E-07
  1.800E+00  2.46720E-04  2.87321E-18  1.02604E-01  0.00000E+00  5.0E-07
  1.900E+00  2.74892E-04  2.32704E-18  8.31002E-02  0.00000E+00  1.6E-07
  2.000E+00  3.04586E-04  1.90536E-18  6.80417E-02  0.00000E+00  1.9E-07
  2.100E+00  3.35803E-04  1.57548E-18  5.62614E-02  0.00000E+00  3.7E-07
  2.200E+00  3.68542E-04  1.31413E-18  4.69283E-02  0.00000E+00  4.3E-07
  2.300E+00  4.02802E-04  1.10502E-18  3.94609E-02  0.00000E+00  3.8E-07
  2.400E+00  4.38585E-04  9.36059E-19  3.34273E-02  0.00000E+00  2.4E-07
  2.500E+00  4.75889E-04  7.98310E-19  2.85082E-02  0.00000E+00  1.0E-07
  2.600E+00  5.14715E-04  6.84987E-19  2.44613E-02  0.00000E+00  1.0E-07
  2.700E+00  5.55063E-04  5.91124E-19  2.11094E-02  0.00000E+00  2.0E-07
  2.800E+00  5.96931E-04  5.12839E-19  1.83138E-02  0.00000E+00  2.4E-07
  2.900E+00  6.40321E-04  4.47119E-19  1.59669E-02  0.00000E+00  2.1E-07
  3.000E+00  6.85233E-04  3.91589E-19  1.39839E-02  0.00000E+00  1.4E-07
  3.100E+00  7.31665E-04  3.44419E-19  1.22994E-02  0.00000E+00  1.0E-07
  3.200E+00  7.79618E-04  3.04151E-19  1.08614E-02  0.00000E+00  1.0E-07
  3.300E+00  8.29092E-04  2.69605E-19  9.62777E-03  0.00000E+00  1.2E-07
  3.400E+00  8.80086E-04  2.39824E-19  8.56426E-03  0.00000E+00  1.5E-07
  3.500E+00  9.32601E-04  2.14037E-19  7.64341E-03  0.00000E+00  1.3E-07
  3.600E+00  9.86636E-04  1.91628E-19  6.84316E-03  0.00000E+00  1.0E-07
  3.700E+00  1.04219E-03  1.72078E-19  6.14501E-03  0.00000E+00  1.0E-07
  3.800E+00  1.09927E-03  1.54957E-19  5.53361E-03  0.00000E+00  1.0E-07
  3.900E+00  1.15786E-03  1.39909E-19  4.99623E-03  0.00000E+00  1.0E-07
  4.000E+00  1.21797E-03  1.26645E-19  4.52257E-03  0.00000E+00  1.0E-07
  4.100E+00  1.27961E-03  1.14917E-19  4.10376E-03  0.00000E+00  1.0E-07
  4.200E+00  1.34276E-03  1.04516E-19  3.73232E-03  0.00000E+00  1.0E-07
  4.300E+00  1.40743E-03  9.52621E-20  3.40187E-03  0.00000E+00  1.0E-07
  4.400E+00  1.47362E-03  8.70111E-20  3.10722E-03  0.00000E+00  1.0E-07
  4.500E+00  1.54133E-03  7.96347E-20  2.84381E-03  0.00000E+00  1.0E-07
  4.600E+00  1.61056E-03  7.30240E-20  2.60773E-03  0.00000E+00  1.0E-07
  4.700E+00  1.68131E-03  6.70841E-20  2.39562E-03  0.00000E+00  1.0E-07
  4.800E+00  1.75357E-03  6.17362E-20  2.20464E-03  0.00000E+00  1.0E-07
  4.900E+00  1.82735E-03  5.69111E-20  2.03233E-03  0.00000E+00  1.0E-07
  5.000E+00  1.90265E-03  5.25487E-20  1.87655E-03  0.00000E+00  1.0E-07
  5.100E+00  1.97947E-03  4.85960E-20  1.73540E-03  0.00000E+00  1.0E-07
  5.200E+00  2.05780E-03  4.50082E-20  1.60727E-03  0.00000E+00  1.0E-07
  5.300E+00  2.13765E-03  4.17457E-20  1.49077E-03  0.00000E+00  1.0E-07
  5.400E+00  2.21902E-03  3.87739E-20  1.38464E-03  0.00000E+00  1.0E-07
  5.500E+00  2.30190E-03  3.60618E-20  1.28779E-03  0.00000E+00  1.0E-07
  5.600E+00  2.38630E-03  3.35829E-20  1.19927E-03  0.00000E+00  1.0E-07
  5.700E+00  2.47222E-03  3.13135E-20  1.11823E-03  0.00000E+00  1.0E-07
  5.800E+00  2.55965E-03  2.92329E-20  1.04393E-03  0.00000E+00  1.0E-07
  5.900E+00  2.64859E-03  2.73224E-20  9.75702E-04  0.00000E+00  1.0E-07
  6.000E+00  2.73905E-03  2.55655E-20  9.12962E-04  0.00000E+00  1.0E-07
  6.100E+00  2.83103E-03  2.39478E-20  8.55192E-04  0.00000E+00  1.0E-07
  6.200E+00  2.92452E-03  2.24562E-20  8.01926E-04  0.00000E+00  1.0E-07
  6.300E+00  3.01952E-03  2.10791E-20  7.52750E-04  0.00000E+00  1.0E-07
  6.400E+00  3.11604E-03  1.98061E-20  7.07287E-04  0.00000E+00  1.0E-07
  6.500E+00  3.21407E-03  1.86278E-20  6.65211E-04  0.00000E+00  1.0E-07
  6.600E+00  3.31362E-03  1.75361E-20  6.26224E-04  0.00000E+00  1.0E-07
  6.700E+00  3.41468E-03  1.65233E-20  5.90056E-04  0.00000E+00  1.0E-07
  6.800E+00  3.51725E-03  1.55826E-20  5.56464E-04  0.00000E+00  1.0E-07
  6.900E+00  3.62133E-03  1.47080E-20  5.25234E-04  0.00000E+00  1.0E-07
  7.000E+00  3.72692E-03  1.38941E-20  4.96168E-04  0.00000E+00  1.0E-07
  7.100E+00  3.83403E-03  1.31358E-20  4.69089E-04  0.00000E+00  1.0E-07
  7.200E+00  3.94265E-03  1.24287E-20  4.43835E-04  0.00000E+00  1.0E-07
  7.300E+00  4.05278E-03  1.17685E-20  4.20262E-04  0.00000E+00  1.0E-07
  7.400E+00  4.16442E-03  1.11517E-20  3.98236E-04  0.00000E+00  1.0E-07
  7.500E+00  4.27757E-03  1.05749E-20  3.77637E-04  0.00000E+00  1.0E-07
  7.600E+00  4.39223E-03  1.00350E-20  3.58356E-04  0.00000E+00  1.0E-07
  7.700E+00  4.50840E-03  9.52916E-21  3.40292E-04  0.00000E+00  1.0E-07
  7.800E+00  4.62608E-03  9.05488E-21  3.23355E-04  0.00000E+00  1.0E-07
  7.900E+00  4.74527E-03  8.60981E-21  3.07462E-04  0.00000E+00  1.0E-07
  8.000E+00  4.86597E-03  8.19181E-21  2.92535E-04  0.00000E+00  1.0E-07
  8.100E+00  4.98817E-03  7.79893E-21  2.78505E-04  0.00000E+00  1.0E-07
  8.200E+00  5.11188E-03  7.42938E-21  2.65308E-04  0.00000E+00  1.0E-07
  8.300E+00  5.23711E-03  7.08153E-21  2.52886E-04  0.00000E+00  1.0E-07
  8.400E+00  5.36383E-03  6.75384E-21  2.41184E-04  0.00000E+00  1.0E-07
  8.500E+00  5.49207E-03  6.44494E-21  2.30153E-04  0.00000E+00  1.0E-07
  8.600E+00  5.62181E-03  6.15354E-21  2.19747E-04  0.00000E+00  1.0E-07
  8.700E+00  5.75306E-03  5.87848E-21  2.09924E-04  0.00000E+00  1.0E-07
  8.800E+00  5.88581E-03  5.61866E-21  2.00646E-04  0.00000E+00  1.0E-07
  8.900E+00  6.02007E-03  5.37307E-21  1.91876E-04  0.00000E+00  1.0E-07
  9.000E+00  6.15583E-03  5.14079E-21  1.83581E-04  0.00000E+00  1.0E-07
  9.100E+00  6.29310E-03  4.92097E-21  1.75731E-04  0.00000E+00  1.0E-07
  9.200E+00  6.43187E-03  4.71281E-21  1.68297E-04  0.00000E+00  1.0E-07
  9.300E+00  6.57214E-03  4.51557E-21  1.61254E-04  0.00000E+00  1.0E-07
  9.400E+00  6.71392E-03  4.32857E-21  1.54576E-04  0.00000E+00  1.0E-07
  9.500E+00  6.85720E-03  4.15118E-21  1.48241E-04  0.00000E+00  1.0E-07
  9.600E+00  7.00198E-03  3.98282E-21  1.42229E-04  0.00000E+00  1.0E-07
  9.700E+00  7.14827E-03  3.82293E-21  1.36519E-04  0.00000E+00  1.0E-07
  9.800E+00  7.29605E-03  3.67101E-21  1.31094E-04  0.00000E+00  1.0E-07
  9.900E+00  7.44534E-03  3.52658E-21  1.25937E-04  0.00000E+00  1.0E-07
  1.000E+01  7.59612E-03  3.38921E-21  1.21031E-04  0.00000E+00  1.0E-07
  1.025E+01  7.97965E-03  3.07404E-21  1.09776E-04  0.00000E+00  1.0E-07
  1.050E+01  8.37255E-03  2.79478E-21  9.98033E-05  0.00000E+00  1.0E-07
  1.075E+01  8.77480E-03  2.54662E-21  9.09413E-05  0.00000E+00  1.0E-07
  1.100E+01  9.18641E-03  2.32549E-21  8.30447E-05  0.00000E+00  1.0E-07
  1.125E+01  9.60736E-03  2.12793E-21  7.59898E-05  0.00000E+00  1.0E-07
  1.150E+01  1.00376E-02  1.95098E-21  6.96709E-05  0.00000E+00  1.0E-07
  1.175E+01  1.04773E-02  1.79211E-21  6.39976E-05  0.00000E+00  1.0E-07
  1.200E+01  1.09262E-02  1.64915E-21  5.88922E-05  0.00000E+00  1.0E-07
  1.225E+01  1.13844E-02  1.52021E-21  5.42878E-05  0.00000E+00  1.0E-07
  1.250E+01  1.18520E-02  1.40368E-21  5.01263E-05  0.00000E+00  1.0E-07
  1.275E+01  1.23288E-02  1.29814E-21  4.63576E-05  0.00000E+00  1.0E-07
  1.300E+01  1.28150E-02  1.20238E-21  4.29377E-05  0.00000E+00  1.0E-07
  1.325E+01  1.33104E-02  1.11532E-21  3.98287E-05  0.00000E+00  1.0E-07
  1.350E+01  1.38150E-02  1.03603E-21  3.69972E-05  0.00000E+00  1.0E-07
  1.375E+01  1.43290E-02  9.63685E-22  3.44138E-05  0.00000E+00  1.0E-07
  1.400E+01  1.48521E-02  8.97574E-22  3.20529E-05  0.00000E+00  1.0E-07
  1.425E+01  1.53845E-02  8.37059E-22  2.98919E-05  0.00000E+00  1.0E-07
  1.450E+01  1.59262E-02  7.81579E-22  2.79107E-05  0.00000E+00  1.0E-07
  1.475E+01  1.64770E-02  7.30640E-22  2.60916E-05  0.00000E+00  1.0E-07
  1.500E+01  1.70371E-02  6.83800E-22  2.44189E-05  0.00000E+00  1.0E-07
  1.525E+01  1.76063E-02  6.40670E-22  2.28787E-05  0.00000E+00  1.0E-07
