 #
 # Subroutine ELSEPA. Elastic scattering of electrons and positrons
 #                    by neutral atoms and positive ions
 #
 # Projectile: electron
 # Kinetic energy = 3.70000E+06 eV = 1.35973E+05 a.u.
 #
 # WARNING: High-energy factorization with free-atom DF screening.
 #          Absorption, polarization and exchange corrections are
 #          switched off.
 #          Phase shifts are calculated for the bare nucleus.
 #          Scattering amplitudes are not evaluated.
 #
 # Element: Pa,  Z =  91,  atomic weight = 2.31036E+02 g/mol
 #
 # Nuclear model: Fermi distribution
 #                Average radius = 6.56564E-13 cm
 #                Skin thickness = 5.46000E-14 cm
 #
 # Number of electrons = 91
 #
 # Total elastic cross section = 1.18824E-17 cm**2 = 4.24330E-01 a0**2
 # 1st transport cross section = 7.84838E-22 cm**2 = 2.80271E-05 a0**2
 # 2nd transport cross section = 2.04522E-21 cm**2 = 7.30363E-05 a0**2
 #
 #
 # Differential cross section:                       MU=(1-COS(THETA))/2
 #
 #  THETA        MU          DCS          DCS        Sherman      error
 #  (deg)                 (cm**2/sr)   (a0**2/sr)    function
 #----------------------------------------------------------------------
  0.000E+00  0.00000E+00  2.44928E-12  8.74654E+04  0.00000E+00  1.0E-05
  1.000E-04  7.61557E-13  2.44926E-12  8.74648E+04  0.00000E+00  1.0E-05
  1.250E-04  1.18994E-12  2.44925E-12  8.74645E+04  0.00000E+00  1.0E-05
  1.500E-04  1.71346E-12  2.44924E-12  8.74640E+04  0.00000E+00  1.0E-05
  1.750E-04  2.33225E-12  2.44923E-12  8.74635E+04  0.00000E+00  1.0E-05
  2.000E-04  3.04617E-12  2.44921E-12  8.74629E+04  0.00000E+00  1.0E-05
  2.250E-04  3.85530E-12  2.44919E-12  8.74622E+04  0.00000E+00  1.0E-05
  2.500E-04  4.75964E-12  2.44917E-12  8.74615E+04  0.00000E+00  1.0E-05
  2.750E-04  5.75917E-12  2.44915E-12  8.74606E+04  0.00000E+00  1.0E-05
  3.000E-04  6.85391E-12  2.44912E-12  8.74597E+04  0.00000E+00  1.0E-05
  3.250E-04  8.04379E-12  2.44909E-12  8.74587E+04  0.00000E+00  1.0E-05
  3.500E-04  9.32893E-12  2.44906E-12  8.74576E+04  0.00000E+00  1.0E-05
  3.750E-04  1.07092E-11  2.44903E-12  8.74565E+04  0.00000E+00  1.0E-05
  4.000E-04  1.21847E-11  2.44900E-12  8.74552E+04  0.00000E+00  1.0E-05
  4.250E-04  1.37554E-11  2.44896E-12  8.74539E+04  0.00000E+00  1.0E-05
  4.500E-04  1.54213E-11  2.44892E-12  8.74525E+04  0.00000E+00  1.0E-05
  4.750E-04  1.71823E-11  2.44888E-12  8.74510E+04  0.00000E+00  1.0E-05
  5.000E-04  1.90386E-11  2.44883E-12  8.74495E+04  0.00000E+00  1.0E-05
  5.250E-04  2.09900E-11  2.44879E-12  8.74478E+04  0.00000E+00  1.0E-05
  5.500E-04  2.30367E-11  2.44874E-12  8.74461E+04  0.00000E+00  1.0E-05
  5.750E-04  2.51785E-11  2.44869E-12  8.74443E+04  0.00000E+00  1.0E-05
  6.000E-04  2.74156E-11  2.44864E-12  8.74424E+04  0.00000E+00  1.0E-05
  6.250E-04  2.97478E-11  2.44858E-12  8.74405E+04  0.00000E+00  1.0E-05
  6.500E-04  3.21752E-11  2.44853E-12  8.74384E+04  0.00000E+00  1.0E-05
  6.750E-04  3.46979E-11  2.44847E-12  8.74363E+04  0.00000E+00  1.0E-05
  7.000E-04  3.73157E-11  2.44840E-12  8.74341E+04  0.00000E+00  1.0E-05
  7.250E-04  4.00286E-11  2.44834E-12  8.74318E+04  0.00000E+00  1.0E-05
  7.500E-04  4.28368E-11  2.44827E-12  8.74295E+04  0.00000E+00  1.0E-05
  7.750E-04  4.57402E-11  2.44821E-12  8.74270E+04  0.00000E+00  1.0E-05
  8.000E-04  4.87388E-11  2.44813E-12  8.74245E+04  0.00000E+00  1.0E-05
  8.250E-04  5.18325E-11  2.44806E-12  8.74219E+04  0.00000E+00  1.0E-05
  8.500E-04  5.50215E-11  2.44799E-12  8.74192E+04  0.00000E+00  1.0E-05
  8.750E-04  5.83057E-11  2.44791E-12  8.74164E+04  0.00000E+00  1.0E-05
  9.000E-04  6.16850E-11  2.44783E-12  8.74136E+04  0.00000E+00  1.0E-05
  9.250E-04  6.51595E-11  2.44775E-12  8.74107E+04  0.00000E+00  1.0E-05
  9.500E-04  6.87293E-11  2.44766E-12  8.74077E+04  0.00000E+00  1.0E-05
  9.750E-04  7.23943E-11  2.44758E-12  8.74046E+04  0.00000E+00  1.0E-05
  1.000E-03  7.61544E-11  2.44749E-12  8.74014E+04  0.00000E+00  1.0E-05
  1.250E-03  1.18991E-10  2.44648E-12  8.73654E+04  0.00000E+00  1.0E-05
  1.500E-03  1.71347E-10  2.44525E-12  8.73214E+04  0.00000E+00  1.0E-05
  1.750E-03  2.33223E-10  2.44379E-12  8.72694E+04  0.00000E+00  1.0E-05
  2.000E-03  3.04617E-10  2.44211E-12  8.72095E+04  0.00000E+00  1.0E-05
  2.250E-03  3.85531E-10  2.44022E-12  8.71417E+04  0.00000E+00  1.0E-05
  2.500E-03  4.75965E-10  2.43810E-12  8.70660E+04  0.00000E+00  1.0E-05
  2.750E-03  5.75917E-10  2.43576E-12  8.69825E+04  0.00000E+00  1.0E-05
  3.000E-03  6.85389E-10  2.43320E-12  8.68911E+04  0.00000E+00  1.0E-05
  3.250E-03  8.04380E-10  2.43042E-12  8.67920E+04  0.00000E+00  1.0E-05
  3.500E-03  9.32891E-10  2.42743E-12  8.66852E+04  0.00000E+00  1.0E-05
  3.750E-03  1.07092E-09  2.42423E-12  8.65707E+04  0.00000E+00  1.0E-05
  4.000E-03  1.21847E-09  2.42081E-12  8.64485E+04  0.00000E+00  1.0E-05
  4.250E-03  1.37554E-09  2.41717E-12  8.63188E+04  0.00000E+00  1.0E-05
  4.500E-03  1.54213E-09  2.41333E-12  8.61816E+04  0.00000E+00  1.0E-05
  4.750E-03  1.71823E-09  2.40928E-12  8.60370E+04  0.00000E+00  1.0E-05
  5.000E-03  1.90386E-09  2.40502E-12  8.58849E+04  0.00000E+00  1.0E-05
  5.250E-03  2.09900E-09  2.40056E-12  8.57255E+04  0.00000E+00  1.0E-05
  5.500E-03  2.30367E-09  2.39589E-12  8.55589E+04  0.00000E+00  1.0E-05
  5.750E-03  2.51785E-09  2.39103E-12  8.53852E+04  0.00000E+00  1.0E-05
  6.000E-03  2.74156E-09  2.38596E-12  8.52043E+04  0.00000E+00  1.0E-05
  6.250E-03  2.97478E-09  2.38070E-12  8.50164E+04  0.00000E+00  1.0E-05
  6.500E-03  3.21752E-09  2.37524E-12  8.48215E+04  0.00000E+00  1.0E-05
  6.750E-03  3.46978E-09  2.36960E-12  8.46198E+04  0.00000E+00  1.0E-05
  7.000E-03  3.73156E-09  2.36376E-12  8.44113E+04  0.00000E+00  1.0E-05
  7.250E-03  4.00286E-09  2.35773E-12  8.41962E+04  0.00000E+00  1.0E-05
  7.500E-03  4.28368E-09  2.35152E-12  8.39744E+04  0.00000E+00  1.0E-05
  7.750E-03  4.57402E-09  2.34513E-12  8.37462E+04  0.00000E+00  1.0E-05
  8.000E-03  4.87388E-09  2.33856E-12  8.35115E+04  0.00000E+00  1.0E-05
  8.250E-03  5.18326E-09  2.33181E-12  8.32706E+04  0.00000E+00  1.0E-05
  8.500E-03  5.50215E-09  2.32489E-12  8.30234E+04  0.00000E+00  1.0E-05
  8.750E-03  5.83057E-09  2.31780E-12  8.27702E+04  0.00000E+00  1.0E-05
  9.000E-03  6.16850E-09  2.31054E-12  8.25109E+04  0.00000E+00  1.0E-05
  9.250E-03  6.51596E-09  2.30312E-12  8.22458E+04  0.00000E+00  1.0E-05
  9.500E-03  6.87293E-09  2.29553E-12  8.19748E+04  0.00000E+00  1.0E-05
  9.750E-03  7.23942E-09  2.28778E-12  8.16983E+04  0.00000E+00  1.0E-05
  1.000E-02  7.61544E-09  2.27988E-12  8.14161E+04  0.00000E+00  1.0E-05
  1.250E-02  1.18991E-08  2.19300E-12  7.83134E+04  0.00000E+00  1.0E-05
  1.500E-02  1.71347E-08  2.09428E-12  7.47881E+04  0.00000E+00  1.0E-05
  1.750E-02  2.33223E-08  1.98686E-12  7.09522E+04  0.00000E+00  1.0E-05
  2.000E-02  3.04617E-08  1.87405E-12  6.69235E+04  0.00000E+00  1.0E-05
  2.250E-02  3.85531E-08  1.75907E-12  6.28177E+04  0.00000E+00  1.0E-05
  2.500E-02  4.75965E-08  1.64451E-12  5.87265E+04  0.00000E+00  1.0E-05
  2.750E-02  5.75917E-08  1.53229E-12  5.47190E+04  0.00000E+00  1.0E-05
  3.000E-02  6.85389E-08  1.42404E-12  5.08534E+04  0.00000E+00  1.0E-05
  3.250E-02  8.04380E-08  1.32116E-12  4.71795E+04  0.00000E+00  1.0E-05
  3.500E-02  9.32891E-08  1.22449E-12  4.37274E+04  0.00000E+00  1.0E-05
  3.750E-02  1.07092E-07  1.13417E-12  4.05020E+04  0.00000E+00  1.0E-05
  4.000E-02  1.21847E-07  1.05037E-12  3.75094E+04  0.00000E+00  1.0E-05
  4.250E-02  1.37554E-07  9.73114E-13  3.47505E+04  0.00000E+00  1.0E-05
  4.500E-02  1.54213E-07  9.02313E-13  3.22222E+04  0.00000E+00  1.0E-05
  4.750E-02  1.71823E-07  8.37388E-13  2.99037E+04  0.00000E+00  1.0E-05
  5.000E-02  1.90386E-07  7.77986E-13  2.77824E+04  0.00000E+00  1.0E-05
  5.250E-02  2.09900E-07  7.23719E-13  2.58445E+04  0.00000E+00  1.0E-05
  5.500E-02  2.30367E-07  6.74232E-13  2.40772E+04  0.00000E+00  1.0E-05
  5.750E-02  2.51785E-07  6.28983E-13  2.24614E+04  0.00000E+00  1.0E-05
  6.000E-02  2.74156E-07  5.87602E-13  2.09836E+04  0.00000E+00  1.0E-05
  6.250E-02  2.97478E-07  5.49735E-13  1.96314E+04  0.00000E+00  1.0E-05
  6.500E-02  3.21752E-07  5.15005E-13  1.83912E+04  0.00000E+00  1.0E-05
  6.750E-02  3.46978E-07  4.83102E-13  1.72519E+04  0.00000E+00  1.0E-05
  7.000E-02  3.73156E-07  4.53764E-13  1.62042E+04  0.00000E+00  1.0E-05
  7.250E-02  4.00286E-07  4.26749E-13  1.52395E+04  0.00000E+00  1.0E-05
  7.500E-02  4.28368E-07  4.01773E-13  1.43476E+04  0.00000E+00  1.0E-05
  7.750E-02  4.57402E-07  3.78649E-13  1.35218E+04  0.00000E+00  1.0E-05
  8.000E-02  4.87388E-07  3.57239E-13  1.27572E+04  0.00000E+00  1.0E-05
  8.250E-02  5.18325E-07  3.37387E-13  1.20483E+04  0.00000E+00  1.0E-05
  8.500E-02  5.50215E-07  3.18909E-13  1.13884E+04  0.00000E+00  1.0E-05
  8.750E-02  5.83057E-07  3.01664E-13  1.07726E+04  0.00000E+00  1.0E-05
  9.000E-02  6.16850E-07  2.85602E-13  1.01990E+04  0.00000E+00  1.0E-05
  9.250E-02  6.51596E-07  2.70622E-13  9.66410E+03  0.00000E+00  1.0E-05
  9.500E-02  6.87293E-07  2.56614E-13  9.16386E+03  0.00000E+00  1.0E-05
  9.750E-02  7.23942E-07  2.43453E-13  8.69386E+03  0.00000E+00  1.0E-05
  1.000E-01  7.61543E-07  2.31137E-13  8.25406E+03  0.00000E+00  1.0E-05
  1.250E-01  1.18991E-06  1.42042E-13  5.07241E+03  0.00000E+00  1.0E-05
  1.500E-01  1.71347E-06  9.09033E-14  3.24621E+03  0.00000E+00  1.0E-05
  1.750E-01  2.33223E-06  6.17203E-14  2.20407E+03  0.00000E+00  1.0E-05
  2.000E-01  3.04617E-06  4.35937E-14  1.55676E+03  0.00000E+00  1.0E-05
  2.250E-01  3.85531E-06  3.16235E-14  1.12929E+03  0.00000E+00  1.0E-05
  2.500E-01  4.75964E-06  2.35228E-14  8.40013E+02  0.00000E+00  1.0E-05
  2.750E-01  5.75916E-06  1.79130E-14  6.39684E+02  0.00000E+00  1.0E-05
  3.000E-01  6.85388E-06  1.39055E-14  4.96576E+02  0.00000E+00  1.0E-05
  3.250E-01  8.04378E-06  1.09521E-14  3.91107E+02  0.00000E+00  1.0E-05
  3.500E-01  9.32888E-06  8.73948E-15  3.12093E+02  0.00000E+00  1.0E-05
  3.750E-01  1.07092E-05  7.07232E-15  2.52557E+02  0.00000E+00  1.0E-05
  4.000E-01  1.21846E-05  5.79356E-15  2.06892E+02  0.00000E+00  1.0E-05
  4.250E-01  1.37553E-05  4.79526E-15  1.71242E+02  0.00000E+00  1.0E-05
  4.500E-01  1.54212E-05  4.00137E-15  1.42892E+02  0.00000E+00  1.0E-05
  4.750E-01  1.71822E-05  3.36876E-15  1.20301E+02  0.00000E+00  1.0E-05
  5.000E-01  1.90385E-05  2.85638E-15  1.02003E+02  0.00000E+00  1.0E-05
  5.250E-01  2.09899E-05  2.44246E-15  8.72217E+01  0.00000E+00  1.0E-05
  5.500E-01  2.30365E-05  2.09774E-15  7.49117E+01  0.00000E+00  1.0E-05
  5.750E-01  2.51783E-05  1.81146E-15  6.46884E+01  0.00000E+00  1.0E-05
  6.000E-01  2.74153E-05  1.57198E-15  5.61362E+01  0.00000E+00  1.0E-05
  6.250E-01  2.97475E-05  1.37052E-15  4.89423E+01  0.00000E+00  1.0E-05
  6.500E-01  3.21749E-05  1.19987E-15  4.28480E+01  0.00000E+00  1.0E-05
  6.750E-01  3.46974E-05  1.05407E-15  3.76415E+01  0.00000E+00  1.0E-05
  7.000E-01  3.73152E-05  9.29726E-16  3.32011E+01  0.00000E+00  1.0E-05
  7.250E-01  4.00281E-05  8.23420E-16  2.94049E+01  0.00000E+00  1.0E-05
  7.500E-01  4.28362E-05  7.31870E-16  2.61355E+01  0.00000E+00  1.0E-05
  7.750E-01  4.57395E-05  6.52784E-16  2.33113E+01  0.00000E+00  1.0E-05
  8.000E-01  4.87380E-05  5.84235E-16  2.08634E+01  0.00000E+00  1.0E-05
  8.250E-01  5.18317E-05  5.24545E-16  1.87319E+01  0.00000E+00  1.0E-05
  8.500E-01  5.50205E-05  4.72274E-16  1.68652E+01  0.00000E+00  1.0E-05
  8.750E-01  5.83045E-05  4.26323E-16  1.52243E+01  0.00000E+00  1.0E-05
  9.000E-01  6.16838E-05  3.85888E-16  1.37803E+01  0.00000E+00  1.0E-05
  9.250E-01  6.51582E-05  3.50191E-16  1.25056E+01  0.00000E+00  1.0E-05
  9.500E-01  6.87277E-05  3.18555E-16  1.13758E+01  0.00000E+00  1.0E-05
  9.750E-01  7.23925E-05  2.90403E-16  1.03705E+01  0.00000E+00  1.0E-05
  1.000E+00  7.61524E-05  2.65336E-16  9.47531E+00  0.00000E+00  1.1E-05
  1.100E+00  9.21439E-05  1.88708E-16  6.73890E+00  0.00000E+00  8.6E-06
  1.200E+00  1.09658E-04  1.37999E-16  4.92805E+00  0.00000E+00  4.7E-06
  1.300E+00  1.28695E-04  1.03262E-16  3.68756E+00  0.00000E+00  9.4E-07
  1.400E+00  1.49255E-04  7.87598E-17  2.81256E+00  0.00000E+00  1.8E-06
  1.500E+00  1.71338E-04  6.11842E-17  2.18493E+00  0.00000E+00  3.3E-06
  1.600E+00  1.94942E-04  4.82815E-17  1.72417E+00  0.00000E+00  3.5E-06
  1.700E+00  2.20070E-04  3.86212E-17  1.37919E+00  0.00000E+00  2.8E-06
  1.800E+00  2.46720E-04  3.12579E-17  1.11624E+00  0.00000E+00  1.6E-06
  1.900E+00  2.74892E-04  2.55849E-17  9.13655E-01  0.00000E+00  2.6E-07
  2.000E+00  3.04586E-04  2.11515E-17  7.55334E-01  0.00000E+00  8.3E-07
  2.100E+00  3.35803E-04  1.76439E-17  6.30075E-01  0.00000E+00  1.5E-06
  2.200E+00  3.68542E-04  1.48288E-17  5.29547E-01  0.00000E+00  1.6E-06
  2.300E+00  4.02802E-04  1.25560E-17  4.48384E-01  0.00000E+00  1.3E-06
  2.400E+00  4.38585E-04  1.07037E-17  3.82238E-01  0.00000E+00  7.3E-07
  2.500E+00  4.75889E-04  9.18100E-18  3.27860E-01  0.00000E+00  1.0E-07
  2.600E+00  5.14715E-04  7.91746E-18  2.82738E-01  0.00000E+00  4.8E-07
  2.700E+00  5.55063E-04  6.86369E-18  2.45107E-01  0.00000E+00  8.1E-07
  2.800E+00  5.96931E-04  5.97976E-18  2.13541E-01  0.00000E+00  8.8E-07
  2.900E+00  6.40321E-04  5.23373E-18  1.86900E-01  0.00000E+00  7.1E-07
  3.000E+00  6.85233E-04  4.59981E-18  1.64262E-01  0.00000E+00  3.9E-07
  3.100E+00  7.31665E-04  4.05890E-18  1.44946E-01  0.00000E+00  1.0E-07
  3.200E+00  7.79618E-04  3.59539E-18  1.28394E-01  0.00000E+00  3.1E-07
  3.300E+00  8.29092E-04  3.19639E-18  1.14145E-01  0.00000E+00  5.0E-07
  3.400E+00  8.80086E-04  2.85116E-18  1.01817E-01  0.00000E+00  5.4E-07
  3.500E+00  9.32601E-04  2.55131E-18  9.11088E-02  0.00000E+00  4.3E-07
  3.600E+00  9.86636E-04  2.29004E-18  8.17787E-02  0.00000E+00  2.3E-07
  3.700E+00  1.04219E-03  2.06151E-18  7.36179E-02  0.00000E+00  1.0E-07
  3.800E+00  1.09927E-03  1.86089E-18  6.64536E-02  0.00000E+00  2.2E-07
  3.900E+00  1.15786E-03  1.68410E-18  6.01402E-02  0.00000E+00  3.4E-07
  4.000E+00  1.21797E-03  1.52793E-18  5.45634E-02  0.00000E+00  3.6E-07
  4.100E+00  1.27961E-03  1.38955E-18  4.96218E-02  0.00000E+00  2.8E-07
  4.200E+00  1.34276E-03  1.26658E-18  4.52303E-02  0.00000E+00  1.4E-07
  4.300E+00  1.40743E-03  1.15691E-18  4.13139E-02  0.00000E+00  1.0E-07
  4.400E+00  1.47362E-03  1.05892E-18  3.78148E-02  0.00000E+00  1.6E-07
  4.500E+00  1.54133E-03  9.71156E-19  3.46806E-02  0.00000E+00  2.4E-07
  4.600E+00  1.61056E-03  8.92346E-19  3.18663E-02  0.00000E+00  2.5E-07
  4.700E+00  1.68131E-03  8.21372E-19  2.93317E-02  0.00000E+00  1.9E-07
  4.800E+00  1.75357E-03  7.57351E-19  2.70455E-02  0.00000E+00  1.0E-07
  4.900E+00  1.82735E-03  6.99478E-19  2.49788E-02  0.00000E+00  1.0E-07
  5.000E+00  1.90265E-03  6.47057E-19  2.31068E-02  0.00000E+00  1.2E-07
  5.100E+00  1.97947E-03  5.99461E-19  2.14071E-02  0.00000E+00  1.8E-07
  5.200E+00  2.05780E-03  5.56173E-19  1.98613E-02  0.00000E+00  1.8E-07
  5.300E+00  2.13765E-03  5.16741E-19  1.84532E-02  0.00000E+00  1.4E-07
  5.400E+00  2.21902E-03  4.80758E-19  1.71682E-02  0.00000E+00  1.0E-07
  5.500E+00  2.30190E-03  4.47859E-19  1.59933E-02  0.00000E+00  1.0E-07
  5.600E+00  2.38630E-03  4.17728E-19  1.49173E-02  0.00000E+00  1.0E-07
  5.700E+00  2.47222E-03  3.90100E-19  1.39307E-02  0.00000E+00  1.4E-07
  5.800E+00  2.55965E-03  3.64729E-19  1.30247E-02  0.00000E+00  1.4E-07
  5.900E+00  2.64859E-03  3.41391E-19  1.21913E-02  0.00000E+00  1.0E-07
  6.000E+00  2.73905E-03  3.19890E-19  1.14235E-02  0.00000E+00  1.0E-07
  6.100E+00  2.83103E-03  3.00061E-19  1.07154E-02  0.00000E+00  1.0E-07
  6.200E+00  2.92452E-03  2.81752E-19  1.00616E-02  0.00000E+00  1.0E-07
  6.300E+00  3.01952E-03  2.64823E-19  9.45699E-03  0.00000E+00  1.1E-07
  6.400E+00  3.11604E-03  2.49144E-19  8.89711E-03  0.00000E+00  1.1E-07
  6.500E+00  3.21407E-03  2.34614E-19  8.37822E-03  0.00000E+00  1.0E-07
  6.600E+00  3.31362E-03  2.21132E-19  7.89676E-03  0.00000E+00  1.0E-07
  6.700E+00  3.41468E-03  2.08608E-19  7.44953E-03  0.00000E+00  1.0E-07
  6.800E+00  3.51725E-03  1.96958E-19  7.03349E-03  0.00000E+00  1.0E-07
  6.900E+00  3.62133E-03  1.86113E-19  6.64621E-03  0.00000E+00  1.0E-07
  7.000E+00  3.72692E-03  1.76007E-19  6.28533E-03  0.00000E+00  1.0E-07
  7.100E+00  3.83403E-03  1.66581E-19  5.94872E-03  0.00000E+00  1.0E-07
  7.200E+00  3.94265E-03  1.57778E-19  5.63436E-03  0.00000E+00  1.0E-07
  7.300E+00  4.05278E-03  1.49551E-19  5.34057E-03  0.00000E+00  1.0E-07
  7.400E+00  4.16442E-03  1.41856E-19  5.06577E-03  0.00000E+00  1.0E-07
  7.500E+00  4.27757E-03  1.34652E-19  4.80851E-03  0.00000E+00  1.0E-07
  7.600E+00  4.39223E-03  1.27901E-19  4.56741E-03  0.00000E+00  1.0E-07
  7.700E+00  4.50840E-03  1.21568E-19  4.34128E-03  0.00000E+00  1.0E-07
  7.800E+00  4.62608E-03  1.15625E-19  4.12905E-03  0.00000E+00  1.0E-07
  7.900E+00  4.74527E-03  1.10043E-19  3.92971E-03  0.00000E+00  1.0E-07
  8.000E+00  4.86597E-03  1.04795E-19  3.74230E-03  0.00000E+00  1.0E-07
  8.100E+00  4.98817E-03  9.98572E-20  3.56597E-03  0.00000E+00  1.0E-07
  8.200E+00  5.11188E-03  9.52086E-20  3.39996E-03  0.00000E+00  1.0E-07
  8.300E+00  5.23711E-03  9.08291E-20  3.24356E-03  0.00000E+00  1.0E-07
  8.400E+00  5.36383E-03  8.66999E-20  3.09611E-03  0.00000E+00  1.0E-07
  8.500E+00  5.49207E-03  8.28036E-20  2.95697E-03  0.00000E+00  1.0E-07
  8.600E+00  5.62181E-03  7.91252E-20  2.82561E-03  0.00000E+00  1.0E-07
  8.700E+00  5.75306E-03  7.56503E-20  2.70152E-03  0.00000E+00  1.0E-07
  8.800E+00  5.88581E-03  7.23654E-20  2.58422E-03  0.00000E+00  1.0E-07
  8.900E+00  6.02007E-03  6.92577E-20  2.47324E-03  0.00000E+00  1.0E-07
  9.000E+00  6.15583E-03  6.63163E-20  2.36820E-03  0.00000E+00  1.0E-07
  9.100E+00  6.29310E-03  6.35306E-20  2.26872E-03  0.00000E+00  1.0E-07
  9.200E+00  6.43187E-03  6.08909E-20  2.17445E-03  0.00000E+00  1.0E-07
  9.300E+00  6.57214E-03  5.83876E-20  2.08506E-03  0.00000E+00  1.0E-07
  9.400E+00  6.71392E-03  5.60127E-20  2.00025E-03  0.00000E+00  1.0E-07
  9.500E+00  6.85720E-03  5.37585E-20  1.91975E-03  0.00000E+00  1.0E-07
  9.600E+00  7.00198E-03  5.16175E-20  1.84329E-03  0.00000E+00  1.0E-07
  9.700E+00  7.14827E-03  4.95828E-20  1.77064E-03  0.00000E+00  1.0E-07
  9.800E+00  7.29605E-03  4.76483E-20  1.70155E-03  0.00000E+00  1.0E-07
  9.900E+00  7.44534E-03  4.58081E-20  1.63584E-03  0.00000E+00  1.0E-07
  1.000E+01  7.59612E-03  4.40569E-20  1.57330E-03  0.00000E+00  1.0E-07
  1.025E+01  7.97965E-03  4.00344E-20  1.42965E-03  0.00000E+00  1.0E-07
  1.050E+01  8.37255E-03  3.64650E-20  1.30219E-03  0.00000E+00  1.0E-07
  1.075E+01  8.77480E-03  3.32887E-20  1.18876E-03  0.00000E+00  1.0E-07
  1.100E+01  9.18641E-03  3.04546E-20  1.08755E-03  0.00000E+00  1.0E-07
  1.125E+01  9.60736E-03  2.79191E-20  9.97010E-04  0.00000E+00  1.0E-07
  1.150E+01  1.00376E-02  2.56453E-20  9.15811E-04  0.00000E+00  1.0E-07
  1.175E+01  1.04773E-02  2.36013E-20  8.42818E-04  0.00000E+00  1.0E-07
  1.200E+01  1.09262E-02  2.17597E-20  7.77052E-04  0.00000E+00  1.0E-07
  1.225E+01  1.13844E-02  2.00967E-20  7.17667E-04  0.00000E+00  1.0E-07
  1.250E+01  1.18520E-02  1.85920E-20  6.63932E-04  0.00000E+00  1.0E-07
  1.275E+01  1.23288E-02  1.72277E-20  6.15211E-04  0.00000E+00  1.0E-07
  1.300E+01  1.28150E-02  1.59883E-20  5.70951E-04  0.00000E+00  1.0E-07
  1.325E+01  1.33104E-02  1.48601E-20  5.30664E-04  0.00000E+00  1.0E-07
  1.350E+01  1.38150E-02  1.38316E-20  4.93937E-04  0.00000E+00  1.0E-07
  1.375E+01  1.43290E-02  1.28922E-20  4.60389E-04  0.00000E+00  1.0E-07
  1.400E+01  1.48521E-02  1.20327E-20  4.29695E-04  0.00000E+00  1.0E-07
  1.425E+01  1.53845E-02  1.12451E-20  4.01570E-04  0.00000E+00  1.0E-07
  1.450E+01  1.59262E-02  1.05223E-20  3.75757E-04  0.00000E+00  1.0E-07
  1.475E+01  1.64770E-02  9.85782E-21  3.52029E-04  0.00000E+00  1.0E-07
  1.500E+01  1.70371E-02  9.24615E-21  3.30186E-04  0.00000E+00  1.0E-07
  1.525E+01  1.76063E-02  8.68231E-21  3.10051E-04  0.00000E+00  1.0E-07
