 #
 # Subroutine ELSEPA. Elastic scattering of electrons and positrons
 #                    by neutral atoms and positive ions
 #
 # Projectile: electron
 # Kinetic energy = 3.70000E+06 eV = 1.35973E+05 a.u.
 #
 # WARNING: High-energy factorization with free-atom DF screening.
 #          Absorption, polarization and exchange corrections are
 #          switched off.
 #          Phase shifts are calculated for the bare nucleus.
 #          Scattering amplitudes are not evaluated.
 #
 # Element: Ta,  Z =  73,  atomic weight = 1.80948E+02 g/mol
 #
 # Nuclear model: Fermi distribution
 #                Average radius = 6.05204E-13 cm
 #                Skin thickness = 5.46000E-14 cm
 #
 # Number of electrons = 73
 #
 # Total elastic cross section = 7.54871E-18 cm**2 = 2.69569E-01 a0**2
 # 1st transport cross section = 4.88589E-22 cm**2 = 1.74478E-05 a0**2
 # 2nd transport cross section = 1.31656E-21 cm**2 = 4.70151E-05 a0**2
 #
 #
 # Differential cross section:                       MU=(1-COS(THETA))/2
 #
 #  THETA        MU          DCS          DCS        Sherman      error
 #  (deg)                 (cm**2/sr)   (a0**2/sr)    function
 #----------------------------------------------------------------------
  0.000E+00  0.00000E+00  1.06434E-12  3.80083E+04  0.00000E+00  1.0E-05
  1.000E-04  7.61557E-13  1.06433E-12  3.80081E+04  0.00000E+00  1.0E-05
  1.250E-04  1.18994E-12  1.06433E-12  3.80080E+04  0.00000E+00  1.0E-05
  1.500E-04  1.71346E-12  1.06433E-12  3.80078E+04  0.00000E+00  1.0E-05
  1.750E-04  2.33225E-12  1.06432E-12  3.80077E+04  0.00000E+00  1.0E-05
  2.000E-04  3.04617E-12  1.06432E-12  3.80075E+04  0.00000E+00  1.0E-05
  2.250E-04  3.85530E-12  1.06431E-12  3.80073E+04  0.00000E+00  1.0E-05
  2.500E-04  4.75964E-12  1.06431E-12  3.80071E+04  0.00000E+00  1.0E-05
  2.750E-04  5.75917E-12  1.06430E-12  3.80068E+04  0.00000E+00  1.0E-05
  3.000E-04  6.85391E-12  1.06429E-12  3.80066E+04  0.00000E+00  1.0E-05
  3.250E-04  8.04379E-12  1.06428E-12  3.80063E+04  0.00000E+00  1.0E-05
  3.500E-04  9.32893E-12  1.06428E-12  3.80060E+04  0.00000E+00  1.0E-05
  3.750E-04  1.07092E-11  1.06427E-12  3.80056E+04  0.00000E+00  1.0E-05
  4.000E-04  1.21847E-11  1.06426E-12  3.80053E+04  0.00000E+00  1.0E-05
  4.250E-04  1.37554E-11  1.06424E-12  3.80049E+04  0.00000E+00  1.0E-05
  4.500E-04  1.54213E-11  1.06423E-12  3.80045E+04  0.00000E+00  1.0E-05
  4.750E-04  1.71823E-11  1.06422E-12  3.80040E+04  0.00000E+00  1.0E-05
  5.000E-04  1.90386E-11  1.06421E-12  3.80036E+04  0.00000E+00  1.0E-05
  5.250E-04  2.09900E-11  1.06419E-12  3.80031E+04  0.00000E+00  1.0E-05
  5.500E-04  2.30367E-11  1.06418E-12  3.80026E+04  0.00000E+00  1.0E-05
  5.750E-04  2.51785E-11  1.06417E-12  3.80021E+04  0.00000E+00  1.0E-05
  6.000E-04  2.74156E-11  1.06415E-12  3.80015E+04  0.00000E+00  1.0E-05
  6.250E-04  2.97478E-11  1.06413E-12  3.80009E+04  0.00000E+00  1.0E-05
  6.500E-04  3.21752E-11  1.06412E-12  3.80003E+04  0.00000E+00  1.0E-05
  6.750E-04  3.46979E-11  1.06410E-12  3.79997E+04  0.00000E+00  1.0E-05
  7.000E-04  3.73157E-11  1.06408E-12  3.79990E+04  0.00000E+00  1.0E-05
  7.250E-04  4.00286E-11  1.06406E-12  3.79984E+04  0.00000E+00  1.0E-05
  7.500E-04  4.28368E-11  1.06404E-12  3.79977E+04  0.00000E+00  1.0E-05
  7.750E-04  4.57402E-11  1.06402E-12  3.79970E+04  0.00000E+00  1.0E-05
  8.000E-04  4.87388E-11  1.06400E-12  3.79962E+04  0.00000E+00  1.0E-05
  8.250E-04  5.18325E-11  1.06398E-12  3.79955E+04  0.00000E+00  1.0E-05
  8.500E-04  5.50215E-11  1.06396E-12  3.79947E+04  0.00000E+00  1.0E-05
  8.750E-04  5.83057E-11  1.06394E-12  3.79939E+04  0.00000E+00  1.0E-05
  9.000E-04  6.16850E-11  1.06391E-12  3.79930E+04  0.00000E+00  1.0E-05
  9.250E-04  6.51595E-11  1.06389E-12  3.79922E+04  0.00000E+00  1.0E-05
  9.500E-04  6.87293E-11  1.06386E-12  3.79913E+04  0.00000E+00  1.0E-05
  9.750E-04  7.23943E-11  1.06384E-12  3.79904E+04  0.00000E+00  1.0E-05
  1.000E-03  7.61544E-11  1.06381E-12  3.79894E+04  0.00000E+00  1.0E-05
  1.250E-03  1.18991E-10  1.06352E-12  3.79788E+04  0.00000E+00  1.0E-05
  1.500E-03  1.71347E-10  1.06315E-12  3.79659E+04  0.00000E+00  1.0E-05
  1.750E-03  2.33223E-10  1.06273E-12  3.79506E+04  0.00000E+00  1.0E-05
  2.000E-03  3.04617E-10  1.06223E-12  3.79330E+04  0.00000E+00  1.0E-05
  2.250E-03  3.85531E-10  1.06167E-12  3.79130E+04  0.00000E+00  1.0E-05
  2.500E-03  4.75965E-10  1.06105E-12  3.78907E+04  0.00000E+00  1.0E-05
  2.750E-03  5.75917E-10  1.06036E-12  3.78661E+04  0.00000E+00  1.0E-05
  3.000E-03  6.85389E-10  1.05960E-12  3.78391E+04  0.00000E+00  1.0E-05
  3.250E-03  8.04380E-10  1.05878E-12  3.78099E+04  0.00000E+00  1.0E-05
  3.500E-03  9.32891E-10  1.05790E-12  3.77783E+04  0.00000E+00  1.0E-05
  3.750E-03  1.07092E-09  1.05695E-12  3.77445E+04  0.00000E+00  1.0E-05
  4.000E-03  1.21847E-09  1.05594E-12  3.77084E+04  0.00000E+00  1.0E-05
  4.250E-03  1.37554E-09  1.05487E-12  3.76700E+04  0.00000E+00  1.0E-05
  4.500E-03  1.54213E-09  1.05373E-12  3.76293E+04  0.00000E+00  1.0E-05
  4.750E-03  1.71823E-09  1.05253E-12  3.75864E+04  0.00000E+00  1.0E-05
  5.000E-03  1.90386E-09  1.05126E-12  3.75413E+04  0.00000E+00  1.0E-05
  5.250E-03  2.09900E-09  1.04994E-12  3.74940E+04  0.00000E+00  1.0E-05
  5.500E-03  2.30367E-09  1.04855E-12  3.74445E+04  0.00000E+00  1.0E-05
  5.750E-03  2.51785E-09  1.04710E-12  3.73927E+04  0.00000E+00  1.0E-05
  6.000E-03  2.74156E-09  1.04559E-12  3.73388E+04  0.00000E+00  1.0E-05
  6.250E-03  2.97478E-09  1.04402E-12  3.72828E+04  0.00000E+00  1.0E-05
  6.500E-03  3.21752E-09  1.04239E-12  3.72246E+04  0.00000E+00  1.0E-05
  6.750E-03  3.46978E-09  1.04071E-12  3.71643E+04  0.00000E+00  1.0E-05
  7.000E-03  3.73156E-09  1.03896E-12  3.71019E+04  0.00000E+00  1.0E-05
  7.250E-03  4.00286E-09  1.03715E-12  3.70374E+04  0.00000E+00  1.0E-05
  7.500E-03  4.28368E-09  1.03529E-12  3.69708E+04  0.00000E+00  1.0E-05
  7.750E-03  4.57402E-09  1.03337E-12  3.69022E+04  0.00000E+00  1.0E-05
  8.000E-03  4.87388E-09  1.03139E-12  3.68315E+04  0.00000E+00  1.0E-05
  8.250E-03  5.18326E-09  1.02935E-12  3.67589E+04  0.00000E+00  1.0E-05
  8.500E-03  5.50215E-09  1.02726E-12  3.66843E+04  0.00000E+00  1.0E-05
  8.750E-03  5.83057E-09  1.02512E-12  3.66077E+04  0.00000E+00  1.0E-05
  9.000E-03  6.16850E-09  1.02292E-12  3.65291E+04  0.00000E+00  1.0E-05
  9.250E-03  6.51596E-09  1.02067E-12  3.64487E+04  0.00000E+00  1.0E-05
  9.500E-03  6.87293E-09  1.01836E-12  3.63663E+04  0.00000E+00  1.0E-05
  9.750E-03  7.23942E-09  1.01600E-12  3.62821E+04  0.00000E+00  1.0E-05
  1.000E-02  7.61544E-09  1.01359E-12  3.61960E+04  0.00000E+00  1.0E-05
  1.250E-02  1.18991E-08  9.86801E-13  3.52393E+04  0.00000E+00  1.0E-05
  1.500E-02  1.71347E-08  9.55563E-13  3.41238E+04  0.00000E+00  1.0E-05
  1.750E-02  2.33223E-08  9.20823E-13  3.28832E+04  0.00000E+00  1.0E-05
  2.000E-02  3.04617E-08  8.83392E-13  3.15465E+04  0.00000E+00  1.0E-05
  2.250E-02  3.85531E-08  8.43954E-13  3.01381E+04  0.00000E+00  1.0E-05
  2.500E-02  4.75965E-08  8.03299E-13  2.86863E+04  0.00000E+00  1.0E-05
  2.750E-02  5.75917E-08  7.62223E-13  2.72195E+04  0.00000E+00  1.0E-05
  3.000E-02  6.85389E-08  7.21337E-13  2.57594E+04  0.00000E+00  1.0E-05
  3.250E-02  8.04380E-08  6.81055E-13  2.43209E+04  0.00000E+00  1.0E-05
  3.500E-02  9.32891E-08  6.41760E-13  2.29176E+04  0.00000E+00  1.0E-05
  3.750E-02  1.07092E-07  6.03910E-13  2.15660E+04  0.00000E+00  1.0E-05
  4.000E-02  1.21847E-07  5.67733E-13  2.02741E+04  0.00000E+00  1.0E-05
  4.250E-02  1.37554E-07  5.33341E-13  1.90460E+04  0.00000E+00  1.0E-05
  4.500E-02  1.54213E-07  5.00741E-13  1.78818E+04  0.00000E+00  1.0E-05
  4.750E-02  1.71823E-07  4.70107E-13  1.67878E+04  0.00000E+00  1.0E-05
  5.000E-02  1.90386E-07  4.41426E-13  1.57636E+04  0.00000E+00  1.0E-05
  5.250E-02  2.09900E-07  4.14648E-13  1.48073E+04  0.00000E+00  1.0E-05
  5.500E-02  2.30367E-07  3.89599E-13  1.39128E+04  0.00000E+00  1.0E-05
  5.750E-02  2.51785E-07  3.66318E-13  1.30815E+04  0.00000E+00  1.0E-05
  6.000E-02  2.74156E-07  3.44706E-13  1.23097E+04  0.00000E+00  1.0E-05
  6.250E-02  2.97478E-07  3.24657E-13  1.15937E+04  0.00000E+00  1.0E-05
  6.500E-02  3.21752E-07  3.06000E-13  1.09275E+04  0.00000E+00  1.0E-05
  6.750E-02  3.46978E-07  2.88690E-13  1.03093E+04  0.00000E+00  1.0E-05
  7.000E-02  3.73156E-07  2.72641E-13  9.73618E+03  0.00000E+00  1.0E-05
  7.250E-02  4.00286E-07  2.57754E-13  9.20455E+03  0.00000E+00  1.0E-05
  7.500E-02  4.28368E-07  2.43894E-13  8.70962E+03  0.00000E+00  1.0E-05
  7.750E-02  4.57402E-07  2.30996E-13  8.24903E+03  0.00000E+00  1.0E-05
  8.000E-02  4.87388E-07  2.19006E-13  7.82083E+03  0.00000E+00  1.0E-05
  8.250E-02  5.18325E-07  2.07847E-13  7.42236E+03  0.00000E+00  1.0E-05
  8.500E-02  5.50215E-07  1.97428E-13  7.05027E+03  0.00000E+00  1.0E-05
  8.750E-02  5.83057E-07  1.87677E-13  6.70208E+03  0.00000E+00  1.0E-05
  9.000E-02  6.16850E-07  1.78573E-13  6.37697E+03  0.00000E+00  1.0E-05
  9.250E-02  6.51596E-07  1.70063E-13  6.07305E+03  0.00000E+00  1.0E-05
  9.500E-02  6.87293E-07  1.62086E-13  5.78819E+03  0.00000E+00  1.0E-05
  9.750E-02  7.23942E-07  1.54574E-13  5.51992E+03  0.00000E+00  1.0E-05
  1.000E-01  7.61543E-07  1.47526E-13  5.26826E+03  0.00000E+00  1.0E-05
  1.250E-01  1.18991E-06  9.56491E-14  3.41569E+03  0.00000E+00  1.0E-05
  1.500E-01  1.71347E-06  6.40456E-14  2.28711E+03  0.00000E+00  1.0E-05
  1.750E-01  2.33223E-06  4.50545E-14  1.60892E+03  0.00000E+00  1.0E-05
  2.000E-01  3.04617E-06  3.26369E-14  1.16548E+03  0.00000E+00  1.0E-05
  2.250E-01  3.85531E-06  2.40552E-14  8.59027E+02  0.00000E+00  1.0E-05
  2.500E-01  4.75964E-06  1.80987E-14  6.46318E+02  0.00000E+00  1.0E-05
  2.750E-01  5.75916E-06  1.39026E-14  4.96472E+02  0.00000E+00  1.0E-05
  3.000E-01  6.85388E-06  1.08612E-14  3.87859E+02  0.00000E+00  1.0E-05
  3.250E-01  8.04378E-06  8.58503E-15  3.06577E+02  0.00000E+00  1.0E-05
  3.500E-01  9.32888E-06  6.85227E-15  2.44699E+02  0.00000E+00  1.0E-05
  3.750E-01  1.07092E-05  5.53209E-15  1.97555E+02  0.00000E+00  1.0E-05
  4.000E-01  1.21846E-05  4.51017E-15  1.61061E+02  0.00000E+00  1.0E-05
  4.250E-01  1.37553E-05  3.70643E-15  1.32359E+02  0.00000E+00  1.0E-05
  4.500E-01  1.54212E-05  3.06504E-15  1.09455E+02  0.00000E+00  1.0E-05
  4.750E-01  1.71822E-05  2.55553E-15  9.12598E+01  0.00000E+00  1.0E-05
  5.000E-01  1.90385E-05  2.14559E-15  7.66205E+01  0.00000E+00  1.0E-05
  5.250E-01  2.09899E-05  1.81615E-15  6.48558E+01  0.00000E+00  1.0E-05
  5.500E-01  2.30365E-05  1.54566E-15  5.51964E+01  0.00000E+00  1.0E-05
  5.750E-01  2.51783E-05  1.32389E-15  4.72771E+01  0.00000E+00  1.0E-05
  6.000E-01  2.74153E-05  1.14072E-15  4.07360E+01  0.00000E+00  1.0E-05
  6.250E-01  2.97475E-05  9.88523E-16  3.53008E+01  0.00000E+00  1.0E-05
  6.500E-01  3.21749E-05  8.61318E-16  3.07582E+01  0.00000E+00  1.0E-05
  6.750E-01  3.46974E-05  7.53945E-16  2.69239E+01  0.00000E+00  1.0E-05
  7.000E-01  3.73152E-05  6.63173E-16  2.36823E+01  0.00000E+00  1.0E-05
  7.250E-01  4.00281E-05  5.86123E-16  2.09308E+01  0.00000E+00  1.0E-05
  7.500E-01  4.28362E-05  5.20230E-16  1.85778E+01  0.00000E+00  1.0E-05
  7.750E-01  4.57395E-05  4.63576E-16  1.65546E+01  0.00000E+00  1.0E-05
  8.000E-01  4.87380E-05  4.14623E-16  1.48065E+01  0.00000E+00  1.0E-05
  8.250E-01  5.18317E-05  3.72100E-16  1.32879E+01  0.00000E+00  1.0E-05
  8.500E-01  5.50205E-05  3.34932E-16  1.19606E+01  0.00000E+00  1.0E-05
  8.750E-01  5.83045E-05  3.02289E-16  1.07949E+01  0.00000E+00  1.0E-05
  9.000E-01  6.16838E-05  2.73575E-16  9.76954E+00  0.00000E+00  1.0E-05
  9.250E-01  6.51582E-05  2.48229E-16  8.86441E+00  0.00000E+00  1.0E-05
  9.500E-01  6.87277E-05  2.25762E-16  8.06212E+00  0.00000E+00  1.0E-05
  9.750E-01  7.23925E-05  2.05758E-16  7.34777E+00  0.00000E+00  1.0E-05
  1.000E+00  7.61524E-05  1.87942E-16  6.71152E+00  0.00000E+00  9.2E-06
  1.100E+00  9.21439E-05  1.33395E-16  4.76361E+00  0.00000E+00  6.9E-06
  1.200E+00  1.09658E-04  9.72712E-17  3.47362E+00  0.00000E+00  3.7E-06
  1.300E+00  1.28695E-04  7.25491E-17  2.59077E+00  0.00000E+00  7.4E-07
  1.400E+00  1.49255E-04  5.51430E-17  1.96919E+00  0.00000E+00  1.5E-06
  1.500E+00  1.71338E-04  4.26903E-17  1.52450E+00  0.00000E+00  2.7E-06
  1.600E+00  1.94942E-04  3.35683E-17  1.19875E+00  0.00000E+00  2.9E-06
  1.700E+00  2.20070E-04  2.67547E-17  9.55427E-01  0.00000E+00  2.3E-06
  1.800E+00  2.46720E-04  2.15776E-17  7.70551E-01  0.00000E+00  1.3E-06
  1.900E+00  2.74892E-04  1.75991E-17  6.28474E-01  0.00000E+00  2.0E-07
  2.000E+00  3.04586E-04  1.44997E-17  5.17792E-01  0.00000E+00  6.9E-07
  2.100E+00  3.35803E-04  1.20555E-17  4.30508E-01  0.00000E+00  1.2E-06
  2.200E+00  3.68542E-04  1.01025E-17  3.60766E-01  0.00000E+00  1.3E-06
  2.300E+00  4.02802E-04  8.53127E-18  3.04657E-01  0.00000E+00  1.0E-06
  2.400E+00  4.38585E-04  7.25525E-18  2.59090E-01  0.00000E+00  5.8E-07
  2.500E+00  4.75889E-04  6.21005E-18  2.21765E-01  0.00000E+00  1.0E-07
  2.600E+00  5.14715E-04  5.34602E-18  1.90910E-01  0.00000E+00  3.9E-07
  2.700E+00  5.55063E-04  4.62770E-18  1.65258E-01  0.00000E+00  6.6E-07
  2.800E+00  5.96931E-04  4.02663E-18  1.43794E-01  0.00000E+00  7.1E-07
  2.900E+00  6.40321E-04  3.52048E-18  1.25719E-01  0.00000E+00  5.7E-07
  3.000E+00  6.85233E-04  3.09139E-18  1.10395E-01  0.00000E+00  3.1E-07
  3.100E+00  7.31665E-04  2.72585E-18  9.73420E-02  0.00000E+00  1.0E-07
  3.200E+00  7.79618E-04  2.41302E-18  8.61705E-02  0.00000E+00  2.5E-07
  3.300E+00  8.29092E-04  2.14399E-18  7.65631E-02  0.00000E+00  4.1E-07
  3.400E+00  8.80086E-04  1.91145E-18  6.82590E-02  0.00000E+00  4.3E-07
  3.500E+00  9.32601E-04  1.70960E-18  6.10509E-02  0.00000E+00  3.4E-07
  3.600E+00  9.86636E-04  1.53381E-18  5.47732E-02  0.00000E+00  1.8E-07
  3.700E+00  1.04219E-03  1.38011E-18  4.92848E-02  0.00000E+00  1.0E-07
  3.800E+00  1.09927E-03  1.24523E-18  4.44681E-02  0.00000E+00  1.8E-07
  3.900E+00  1.15786E-03  1.12640E-18  4.02246E-02  0.00000E+00  2.8E-07
  4.000E+00  1.21797E-03  1.02146E-18  3.64771E-02  0.00000E+00  2.9E-07
  4.100E+00  1.27961E-03  9.28503E-19  3.31574E-02  0.00000E+00  2.2E-07
  4.200E+00  1.34276E-03  8.45908E-19  3.02079E-02  0.00000E+00  1.1E-07
  4.300E+00  1.40743E-03  7.72270E-19  2.75783E-02  0.00000E+00  1.0E-07
  4.400E+00  1.47362E-03  7.06498E-19  2.52295E-02  0.00000E+00  1.3E-07
  4.500E+00  1.54133E-03  6.47604E-19  2.31264E-02  0.00000E+00  2.0E-07
  4.600E+00  1.61056E-03  5.94739E-19  2.12385E-02  0.00000E+00  2.0E-07
  4.700E+00  1.68131E-03  5.47151E-19  1.95391E-02  0.00000E+00  1.5E-07
  4.800E+00  1.75357E-03  5.04242E-19  1.80068E-02  0.00000E+00  1.0E-07
  4.900E+00  1.82735E-03  4.65472E-19  1.66223E-02  0.00000E+00  1.0E-07
  5.000E+00  1.90265E-03  4.30370E-19  1.53688E-02  0.00000E+00  1.0E-07
  5.100E+00  1.97947E-03  3.98517E-19  1.42313E-02  0.00000E+00  1.5E-07
  5.200E+00  2.05780E-03  3.69564E-19  1.31974E-02  0.00000E+00  1.5E-07
  5.300E+00  2.13765E-03  3.43203E-19  1.22560E-02  0.00000E+00  1.1E-07
  5.400E+00  2.21902E-03  3.19162E-19  1.13975E-02  0.00000E+00  1.0E-07
  5.500E+00  2.30190E-03  2.97194E-19  1.06130E-02  0.00000E+00  1.0E-07
  5.600E+00  2.38630E-03  2.77088E-19  9.89497E-03  0.00000E+00  1.0E-07
  5.700E+00  2.47222E-03  2.58662E-19  9.23698E-03  0.00000E+00  1.1E-07
  5.800E+00  2.55965E-03  2.41750E-19  8.63306E-03  0.00000E+00  1.1E-07
  5.900E+00  2.64859E-03  2.26204E-19  8.07788E-03  0.00000E+00  1.0E-07
  6.000E+00  2.73905E-03  2.11890E-19  7.56674E-03  0.00000E+00  1.0E-07
  6.100E+00  2.83103E-03  1.98698E-19  7.09562E-03  0.00000E+00  1.0E-07
  6.200E+00  2.92452E-03  1.86522E-19  6.66083E-03  0.00000E+00  1.0E-07
  6.300E+00  3.01952E-03  1.75270E-19  6.25901E-03  0.00000E+00  1.0E-07
  6.400E+00  3.11604E-03  1.64857E-19  5.88714E-03  0.00000E+00  1.0E-07
  6.500E+00  3.21407E-03  1.55210E-19  5.54265E-03  0.00000E+00  1.0E-07
  6.600E+00  3.31362E-03  1.46264E-19  5.22317E-03  0.00000E+00  1.0E-07
  6.700E+00  3.41468E-03  1.37957E-19  4.92654E-03  0.00000E+00  1.0E-07
  6.800E+00  3.51725E-03  1.30234E-19  4.65075E-03  0.00000E+00  1.0E-07
  6.900E+00  3.62133E-03  1.23048E-19  4.39413E-03  0.00000E+00  1.0E-07
  7.000E+00  3.72692E-03  1.16355E-19  4.15510E-03  0.00000E+00  1.0E-07
  7.100E+00  3.83403E-03  1.10114E-19  3.93223E-03  0.00000E+00  1.0E-07
  7.200E+00  3.94265E-03  1.04288E-19  3.72419E-03  0.00000E+00  1.0E-07
  7.300E+00  4.05278E-03  9.88453E-20  3.52983E-03  0.00000E+00  1.0E-07
  7.400E+00  4.16442E-03  9.37561E-20  3.34809E-03  0.00000E+00  1.0E-07
  7.500E+00  4.27757E-03  8.89929E-20  3.17800E-03  0.00000E+00  1.0E-07
  7.600E+00  4.39223E-03  8.45306E-20  3.01864E-03  0.00000E+00  1.0E-07
  7.700E+00  4.50840E-03  8.03467E-20  2.86923E-03  0.00000E+00  1.0E-07
  7.800E+00  4.62608E-03  7.64208E-20  2.72904E-03  0.00000E+00  1.0E-07
  7.900E+00  4.74527E-03  7.27341E-20  2.59738E-03  0.00000E+00  1.0E-07
  8.000E+00  4.86597E-03  6.92688E-20  2.47363E-03  0.00000E+00  1.0E-07
  8.100E+00  4.98817E-03  6.60092E-20  2.35723E-03  0.00000E+00  1.0E-07
  8.200E+00  5.11188E-03  6.29409E-20  2.24766E-03  0.00000E+00  1.0E-07
  8.300E+00  5.23711E-03  6.00507E-20  2.14445E-03  0.00000E+00  1.0E-07
  8.400E+00  5.36383E-03  5.73261E-20  2.04715E-03  0.00000E+00  1.0E-07
  8.500E+00  5.49207E-03  5.47555E-20  1.95536E-03  0.00000E+00  1.0E-07
  8.600E+00  5.62181E-03  5.23290E-20  1.86870E-03  0.00000E+00  1.0E-07
  8.700E+00  5.75306E-03  5.00369E-20  1.78685E-03  0.00000E+00  1.0E-07
  8.800E+00  5.88581E-03  4.78702E-20  1.70948E-03  0.00000E+00  1.0E-07
  8.900E+00  6.02007E-03  4.58207E-20  1.63629E-03  0.00000E+00  1.0E-07
  9.000E+00  6.15583E-03  4.38808E-20  1.56701E-03  0.00000E+00  1.0E-07
  9.100E+00  6.29310E-03  4.20438E-20  1.50141E-03  0.00000E+00  1.0E-07
  9.200E+00  6.43187E-03  4.03029E-20  1.43924E-03  0.00000E+00  1.0E-07
  9.300E+00  6.57214E-03  3.86522E-20  1.38030E-03  0.00000E+00  1.0E-07
  9.400E+00  6.71392E-03  3.70861E-20  1.32437E-03  0.00000E+00  1.0E-07
  9.500E+00  6.85720E-03  3.55995E-20  1.27128E-03  0.00000E+00  1.0E-07
  9.600E+00  7.00198E-03  3.41876E-20  1.22086E-03  0.00000E+00  1.0E-07
  9.700E+00  7.14827E-03  3.28458E-20  1.17294E-03  0.00000E+00  1.0E-07
  9.800E+00  7.29605E-03  3.15699E-20  1.12738E-03  0.00000E+00  1.0E-07
  9.900E+00  7.44534E-03  3.03562E-20  1.08404E-03  0.00000E+00  1.0E-07
  1.000E+01  7.59612E-03  2.92010E-20  1.04279E-03  0.00000E+00  1.0E-07
  1.025E+01  7.97965E-03  2.65474E-20  9.48025E-04  0.00000E+00  1.0E-07
  1.050E+01  8.37255E-03  2.41922E-20  8.63918E-04  0.00000E+00  1.0E-07
  1.075E+01  8.77480E-03  2.20957E-20  7.89052E-04  0.00000E+00  1.0E-07
  1.100E+01  9.18641E-03  2.02245E-20  7.22229E-04  0.00000E+00  1.0E-07
  1.125E+01  9.60736E-03  1.85499E-20  6.62428E-04  0.00000E+00  1.0E-07
  1.150E+01  1.00376E-02  1.70475E-20  6.08778E-04  0.00000E+00  1.0E-07
  1.175E+01  1.04773E-02  1.56964E-20  5.60529E-04  0.00000E+00  1.0E-07
  1.200E+01  1.09262E-02  1.44786E-20  5.17038E-04  0.00000E+00  1.0E-07
  1.225E+01  1.13844E-02  1.33784E-20  4.77750E-04  0.00000E+00  1.0E-07
  1.250E+01  1.18520E-02  1.23824E-20  4.42183E-04  0.00000E+00  1.0E-07
  1.275E+01  1.23288E-02  1.14789E-20  4.09920E-04  0.00000E+00  1.0E-07
  1.300E+01  1.28150E-02  1.06578E-20  3.80595E-04  0.00000E+00  1.0E-07
  1.325E+01  1.33104E-02  9.90994E-21  3.53890E-04  0.00000E+00  1.0E-07
  1.350E+01  1.38150E-02  9.22783E-21  3.29532E-04  0.00000E+00  1.0E-07
  1.375E+01  1.43290E-02  8.60445E-21  3.07271E-04  0.00000E+00  1.0E-07
  1.400E+01  1.48521E-02  8.03381E-21  2.86893E-04  0.00000E+00  1.0E-07
  1.425E+01  1.53845E-02  7.51064E-21  2.68210E-04  0.00000E+00  1.0E-07
  1.450E+01  1.59262E-02  7.03023E-21  2.51054E-04  0.00000E+00  1.0E-07
  1.475E+01  1.64770E-02  6.58839E-21  2.35276E-04  0.00000E+00  1.0E-07
  1.500E+01  1.70371E-02  6.18143E-21  2.20743E-04  0.00000E+00  1.0E-07
  1.525E+01  1.76063E-02  5.80610E-21  2.07340E-04  0.00000E+00  1.0E-07
