 #
 # Subroutine ELSEPA. Elastic scattering of electrons and positrons
 #                    by neutral atoms and positive ions
 #
 # Projectile: electron
 # Kinetic energy = 3.70000E+06 eV = 1.35973E+05 a.u.
 #
 # WARNING: High-energy factorization with free-atom DF screening.
 #          Absorption, polarization and exchange corrections are
 #          switched off.
 #          Phase shifts are calculated for the bare nucleus.
 #          Scattering amplitudes are not evaluated.
 #
 # Element: Te,  Z =  52,  atomic weight = 1.27600E+02 g/mol
 #
 # Nuclear model: Fermi distribution
 #                Average radius = 5.38684E-13 cm
 #                Skin thickness = 5.46000E-14 cm
 #
 # Number of electrons = 52
 #
 # Total elastic cross section = 5.61131E-18 cm**2 = 2.00383E-01 a0**2
 # 1st transport cross section = 2.39517E-22 cm**2 = 8.55329E-06 a0**2
 # 2nd transport cross section = 6.63613E-22 cm**2 = 2.36980E-05 a0**2
 #
 #
 # Differential cross section:                       MU=(1-COS(THETA))/2
 #
 #  THETA        MU          DCS          DCS        Sherman      error
 #  (deg)                 (cm**2/sr)   (a0**2/sr)    function
 #----------------------------------------------------------------------
  0.000E+00  0.00000E+00  7.98794E-13  2.85254E+04  0.00000E+00  1.0E-05
  1.000E-04  7.61557E-13  7.98791E-13  2.85253E+04  0.00000E+00  1.0E-05
  1.250E-04  1.18994E-12  7.98789E-13  2.85253E+04  0.00000E+00  1.0E-05
  1.500E-04  1.71346E-12  7.98787E-13  2.85252E+04  0.00000E+00  1.0E-05
  1.750E-04  2.33225E-12  7.98785E-13  2.85251E+04  0.00000E+00  1.0E-05
  2.000E-04  3.04617E-12  7.98782E-13  2.85250E+04  0.00000E+00  1.0E-05
  2.250E-04  3.85530E-12  7.98779E-13  2.85249E+04  0.00000E+00  1.0E-05
  2.500E-04  4.75964E-12  7.98776E-13  2.85248E+04  0.00000E+00  1.0E-05
  2.750E-04  5.75917E-12  7.98772E-13  2.85247E+04  0.00000E+00  1.0E-05
  3.000E-04  6.85391E-12  7.98768E-13  2.85245E+04  0.00000E+00  1.0E-05
  3.250E-04  8.04379E-12  7.98764E-13  2.85244E+04  0.00000E+00  1.0E-05
  3.500E-04  9.32893E-12  7.98759E-13  2.85242E+04  0.00000E+00  1.0E-05
  3.750E-04  1.07092E-11  7.98754E-13  2.85240E+04  0.00000E+00  1.0E-05
  4.000E-04  1.21847E-11  7.98748E-13  2.85238E+04  0.00000E+00  1.0E-05
  4.250E-04  1.37554E-11  7.98742E-13  2.85236E+04  0.00000E+00  1.0E-05
  4.500E-04  1.54213E-11  7.98736E-13  2.85234E+04  0.00000E+00  1.0E-05
  4.750E-04  1.71823E-11  7.98729E-13  2.85231E+04  0.00000E+00  1.0E-05
  5.000E-04  1.90386E-11  7.98722E-13  2.85229E+04  0.00000E+00  1.0E-05
  5.250E-04  2.09900E-11  7.98715E-13  2.85226E+04  0.00000E+00  1.0E-05
  5.500E-04  2.30367E-11  7.98707E-13  2.85224E+04  0.00000E+00  1.0E-05
  5.750E-04  2.51785E-11  7.98699E-13  2.85221E+04  0.00000E+00  1.0E-05
  6.000E-04  2.74156E-11  7.98691E-13  2.85218E+04  0.00000E+00  1.0E-05
  6.250E-04  2.97478E-11  7.98682E-13  2.85215E+04  0.00000E+00  1.0E-05
  6.500E-04  3.21752E-11  7.98673E-13  2.85211E+04  0.00000E+00  1.0E-05
  6.750E-04  3.46979E-11  7.98663E-13  2.85208E+04  0.00000E+00  1.0E-05
  7.000E-04  3.73157E-11  7.98654E-13  2.85204E+04  0.00000E+00  1.0E-05
  7.250E-04  4.00286E-11  7.98643E-13  2.85201E+04  0.00000E+00  1.0E-05
  7.500E-04  4.28368E-11  7.98633E-13  2.85197E+04  0.00000E+00  1.0E-05
  7.750E-04  4.57402E-11  7.98622E-13  2.85193E+04  0.00000E+00  1.0E-05
  8.000E-04  4.87388E-11  7.98611E-13  2.85189E+04  0.00000E+00  1.0E-05
  8.250E-04  5.18325E-11  7.98599E-13  2.85185E+04  0.00000E+00  1.0E-05
  8.500E-04  5.50215E-11  7.98587E-13  2.85181E+04  0.00000E+00  1.0E-05
  8.750E-04  5.83057E-11  7.98575E-13  2.85176E+04  0.00000E+00  1.0E-05
  9.000E-04  6.16850E-11  7.98562E-13  2.85172E+04  0.00000E+00  1.0E-05
  9.250E-04  6.51595E-11  7.98549E-13  2.85167E+04  0.00000E+00  1.0E-05
  9.500E-04  6.87293E-11  7.98535E-13  2.85162E+04  0.00000E+00  1.0E-05
  9.750E-04  7.23943E-11  7.98522E-13  2.85157E+04  0.00000E+00  1.0E-05
  1.000E-03  7.61544E-11  7.98507E-13  2.85152E+04  0.00000E+00  1.0E-05
  1.250E-03  1.18991E-10  7.98346E-13  2.85095E+04  0.00000E+00  1.0E-05
  1.500E-03  1.71347E-10  7.98149E-13  2.85024E+04  0.00000E+00  1.0E-05
  1.750E-03  2.33223E-10  7.97916E-13  2.84941E+04  0.00000E+00  1.0E-05
  2.000E-03  3.04617E-10  7.97648E-13  2.84845E+04  0.00000E+00  1.0E-05
  2.250E-03  3.85531E-10  7.97343E-13  2.84737E+04  0.00000E+00  1.0E-05
  2.500E-03  4.75965E-10  7.97003E-13  2.84615E+04  0.00000E+00  1.0E-05
  2.750E-03  5.75917E-10  7.96628E-13  2.84481E+04  0.00000E+00  1.0E-05
  3.000E-03  6.85389E-10  7.96217E-13  2.84334E+04  0.00000E+00  1.0E-05
  3.250E-03  8.04380E-10  7.95771E-13  2.84175E+04  0.00000E+00  1.0E-05
  3.500E-03  9.32891E-10  7.95289E-13  2.84003E+04  0.00000E+00  1.0E-05
  3.750E-03  1.07092E-09  7.94772E-13  2.83818E+04  0.00000E+00  1.0E-05
  4.000E-03  1.21847E-09  7.94220E-13  2.83621E+04  0.00000E+00  1.0E-05
  4.250E-03  1.37554E-09  7.93633E-13  2.83412E+04  0.00000E+00  1.0E-05
  4.500E-03  1.54213E-09  7.93012E-13  2.83190E+04  0.00000E+00  1.0E-05
  4.750E-03  1.71823E-09  7.92355E-13  2.82955E+04  0.00000E+00  1.0E-05
  5.000E-03  1.90386E-09  7.91664E-13  2.82708E+04  0.00000E+00  1.0E-05
  5.250E-03  2.09900E-09  7.90938E-13  2.82449E+04  0.00000E+00  1.0E-05
  5.500E-03  2.30367E-09  7.90178E-13  2.82178E+04  0.00000E+00  1.0E-05
  5.750E-03  2.51785E-09  7.89384E-13  2.81894E+04  0.00000E+00  1.0E-05
  6.000E-03  2.74156E-09  7.88556E-13  2.81599E+04  0.00000E+00  1.0E-05
  6.250E-03  2.97478E-09  7.87694E-13  2.81291E+04  0.00000E+00  1.0E-05
  6.500E-03  3.21752E-09  7.86799E-13  2.80971E+04  0.00000E+00  1.0E-05
  6.750E-03  3.46978E-09  7.85870E-13  2.80639E+04  0.00000E+00  1.0E-05
  7.000E-03  3.73156E-09  7.84907E-13  2.80295E+04  0.00000E+00  1.0E-05
  7.250E-03  4.00286E-09  7.83912E-13  2.79940E+04  0.00000E+00  1.0E-05
  7.500E-03  4.28368E-09  7.82884E-13  2.79573E+04  0.00000E+00  1.0E-05
  7.750E-03  4.57402E-09  7.81822E-13  2.79194E+04  0.00000E+00  1.0E-05
  8.000E-03  4.87388E-09  7.80729E-13  2.78803E+04  0.00000E+00  1.0E-05
  8.250E-03  5.18326E-09  7.79603E-13  2.78401E+04  0.00000E+00  1.0E-05
  8.500E-03  5.50215E-09  7.78445E-13  2.77988E+04  0.00000E+00  1.0E-05
  8.750E-03  5.83057E-09  7.77255E-13  2.77563E+04  0.00000E+00  1.0E-05
  9.000E-03  6.16850E-09  7.76034E-13  2.77127E+04  0.00000E+00  1.0E-05
  9.250E-03  6.51596E-09  7.74782E-13  2.76680E+04  0.00000E+00  1.0E-05
  9.500E-03  6.87293E-09  7.73498E-13  2.76221E+04  0.00000E+00  1.0E-05
  9.750E-03  7.23942E-09  7.72183E-13  2.75752E+04  0.00000E+00  1.0E-05
  1.000E-02  7.61544E-09  7.70838E-13  2.75271E+04  0.00000E+00  1.0E-05
  1.250E-02  1.18991E-08  7.55763E-13  2.69888E+04  0.00000E+00  1.0E-05
  1.500E-02  1.71347E-08  7.37842E-13  2.63488E+04  0.00000E+00  1.0E-05
  1.750E-02  2.33223E-08  7.17584E-13  2.56254E+04  0.00000E+00  1.0E-05
  2.000E-02  3.04617E-08  6.95339E-13  2.48310E+04  0.00000E+00  1.0E-05
  2.250E-02  3.85531E-08  6.71294E-13  2.39723E+04  0.00000E+00  1.0E-05
  2.500E-02  4.75965E-08  6.45841E-13  2.30634E+04  0.00000E+00  1.0E-05
  2.750E-02  5.75917E-08  6.19491E-13  2.21224E+04  0.00000E+00  1.0E-05
  3.000E-02  6.85389E-08  5.92606E-13  2.11624E+04  0.00000E+00  1.0E-05
  3.250E-02  8.04380E-08  5.65339E-13  2.01886E+04  0.00000E+00  1.0E-05
  3.500E-02  9.32891E-08  5.37890E-13  1.92084E+04  0.00000E+00  1.0E-05
  3.750E-02  1.07092E-07  5.10764E-13  1.82397E+04  0.00000E+00  1.0E-05
  4.000E-02  1.21847E-07  4.84176E-13  1.72902E+04  0.00000E+00  1.0E-05
  4.250E-02  1.37554E-07  4.58217E-13  1.63632E+04  0.00000E+00  1.0E-05
  4.500E-02  1.54213E-07  4.32834E-13  1.54568E+04  0.00000E+00  1.0E-05
  4.750E-02  1.71823E-07  4.08440E-13  1.45856E+04  0.00000E+00  1.0E-05
  5.000E-02  1.90386E-07  3.85104E-13  1.37523E+04  0.00000E+00  1.0E-05
  5.250E-02  2.09900E-07  3.62866E-13  1.29582E+04  0.00000E+00  1.0E-05
  5.500E-02  2.30367E-07  3.41508E-13  1.21955E+04  0.00000E+00  1.0E-05
  5.750E-02  2.51785E-07  3.21326E-13  1.14747E+04  0.00000E+00  1.0E-05
  6.000E-02  2.74156E-07  3.02300E-13  1.07953E+04  0.00000E+00  1.0E-05
  6.250E-02  2.97478E-07  2.84403E-13  1.01562E+04  0.00000E+00  1.0E-05
  6.500E-02  3.21752E-07  2.67464E-13  9.55133E+03  0.00000E+00  1.0E-05
  6.750E-02  3.46978E-07  2.51579E-13  8.98404E+03  0.00000E+00  1.0E-05
  7.000E-02  3.73156E-07  2.36725E-13  8.45359E+03  0.00000E+00  1.0E-05
  7.250E-02  4.00286E-07  2.22847E-13  7.95799E+03  0.00000E+00  1.0E-05
  7.500E-02  4.28368E-07  2.09826E-13  7.49302E+03  0.00000E+00  1.0E-05
  7.750E-02  4.57402E-07  1.97652E-13  7.05829E+03  0.00000E+00  1.0E-05
  8.000E-02  4.87388E-07  1.86309E-13  6.65323E+03  0.00000E+00  1.0E-05
  8.250E-02  5.18325E-07  1.75741E-13  6.27582E+03  0.00000E+00  1.0E-05
  8.500E-02  5.50215E-07  1.65866E-13  5.92318E+03  0.00000E+00  1.0E-05
  8.750E-02  5.83057E-07  1.56635E-13  5.59354E+03  0.00000E+00  1.0E-05
  9.000E-02  6.16850E-07  1.48039E-13  5.28655E+03  0.00000E+00  1.0E-05
  9.250E-02  6.51596E-07  1.40029E-13  5.00051E+03  0.00000E+00  1.0E-05
  9.500E-02  6.87293E-07  1.32552E-13  4.73351E+03  0.00000E+00  1.0E-05
  9.750E-02  7.23942E-07  1.25550E-13  4.48346E+03  0.00000E+00  1.0E-05
  1.000E-01  7.61543E-07  1.19019E-13  4.25025E+03  0.00000E+00  1.0E-05
  1.250E-01  1.18991E-06  7.27010E-14  2.59620E+03  0.00000E+00  1.0E-05
  1.500E-01  1.71347E-06  4.67766E-14  1.67042E+03  0.00000E+00  1.0E-05
  1.750E-01  2.33223E-06  3.18305E-14  1.13669E+03  0.00000E+00  1.0E-05
  2.000E-01  3.04617E-06  2.23896E-14  7.99547E+02  0.00000E+00  1.0E-05
  2.250E-01  3.85531E-06  1.59949E-14  5.71188E+02  0.00000E+00  1.0E-05
  2.500E-01  4.75964E-06  1.16430E-14  4.15780E+02  0.00000E+00  1.0E-05
  2.750E-01  5.75916E-06  8.65518E-15  3.09082E+02  0.00000E+00  1.0E-05
  3.000E-01  6.85388E-06  6.55426E-15  2.34057E+02  0.00000E+00  1.0E-05
  3.250E-01  8.04378E-06  5.04403E-15  1.80126E+02  0.00000E+00  1.0E-05
  3.500E-01  9.32888E-06  3.94649E-15  1.40932E+02  0.00000E+00  1.0E-05
  3.750E-01  1.07092E-05  3.14039E-15  1.12145E+02  0.00000E+00  1.0E-05
  4.000E-01  1.21846E-05  2.53699E-15  9.05975E+01  0.00000E+00  1.0E-05
  4.250E-01  1.37553E-05  2.07709E-15  7.41742E+01  0.00000E+00  1.0E-05
  4.500E-01  1.54212E-05  1.71984E-15  6.14165E+01  0.00000E+00  1.0E-05
  4.750E-01  1.71822E-05  1.43933E-15  5.13994E+01  0.00000E+00  1.0E-05
  5.000E-01  1.90385E-05  1.21550E-15  4.34064E+01  0.00000E+00  1.0E-05
  5.250E-01  2.09899E-05  1.03557E-15  3.69808E+01  0.00000E+00  1.0E-05
  5.500E-01  2.30365E-05  8.87372E-16  3.16886E+01  0.00000E+00  1.0E-05
  5.750E-01  2.51783E-05  7.65015E-16  2.73192E+01  0.00000E+00  1.0E-05
  6.000E-01  2.74153E-05  6.63088E-16  2.36793E+01  0.00000E+00  1.0E-05
  6.250E-01  2.97475E-05  5.77536E-16  2.06242E+01  0.00000E+00  1.0E-05
  6.500E-01  3.21749E-05  5.04925E-16  1.80312E+01  0.00000E+00  1.0E-05
  6.750E-01  3.46974E-05  4.43058E-16  1.58219E+01  0.00000E+00  1.0E-05
  7.000E-01  3.73152E-05  3.90257E-16  1.39363E+01  0.00000E+00  1.0E-05
  7.250E-01  4.00281E-05  3.45010E-16  1.23205E+01  0.00000E+00  1.0E-05
  7.500E-01  4.28362E-05  3.05921E-16  1.09247E+01  0.00000E+00  1.0E-05
  7.750E-01  4.57395E-05  2.72087E-16  9.71642E+00  0.00000E+00  1.0E-05
  8.000E-01  4.87380E-05  2.42741E-16  8.66843E+00  0.00000E+00  1.0E-05
  8.250E-01  5.18317E-05  2.17182E-16  7.75571E+00  0.00000E+00  1.0E-05
  8.500E-01  5.50205E-05  1.94806E-16  6.95666E+00  0.00000E+00  1.0E-05
  8.750E-01  5.83045E-05  1.75160E-16  6.25507E+00  0.00000E+00  1.0E-05
  9.000E-01  6.16838E-05  1.57906E-16  5.63892E+00  0.00000E+00  1.0E-05
  9.250E-01  6.51582E-05  1.42708E-16  5.09620E+00  0.00000E+00  1.0E-05
  9.500E-01  6.87277E-05  1.29276E-16  4.61655E+00  0.00000E+00  1.0E-05
  9.750E-01  7.23925E-05  1.17365E-16  4.19117E+00  0.00000E+00  1.0E-05
  1.000E+00  7.61524E-05  1.06798E-16  3.81381E+00  0.00000E+00  8.3E-06
  1.100E+00  9.21439E-05  7.47785E-17  2.67039E+00  0.00000E+00  6.3E-06
  1.200E+00  1.09658E-04  5.39638E-17  1.92708E+00  0.00000E+00  3.4E-06
  1.300E+00  1.28695E-04  3.99549E-17  1.42682E+00  0.00000E+00  7.3E-07
  1.400E+00  1.49255E-04  3.02272E-17  1.07943E+00  0.00000E+00  1.3E-06
  1.500E+00  1.71338E-04  2.33177E-17  8.32691E-01  0.00000E+00  2.4E-06
  1.600E+00  1.94942E-04  1.82871E-17  6.53046E-01  0.00000E+00  2.6E-06
  1.700E+00  2.20070E-04  1.45466E-17  5.19469E-01  0.00000E+00  2.1E-06
  1.800E+00  2.46720E-04  1.17130E-17  4.18278E-01  0.00000E+00  1.2E-06
  1.900E+00  2.74892E-04  9.53845E-18  3.40624E-01  0.00000E+00  2.1E-07
  2.000E+00  3.04586E-04  7.84662E-18  2.80208E-01  0.00000E+00  5.9E-07
  2.100E+00  3.35803E-04  6.51372E-18  2.32609E-01  0.00000E+00  1.1E-06
  2.200E+00  3.68542E-04  5.44961E-18  1.94609E-01  0.00000E+00  1.2E-06
  2.300E+00  4.02802E-04  4.59420E-18  1.64062E-01  0.00000E+00  9.5E-07
  2.400E+00  4.38585E-04  3.90013E-18  1.39276E-01  0.00000E+00  5.4E-07
  2.500E+00  4.75889E-04  3.33221E-18  1.18995E-01  0.00000E+00  1.0E-07
  2.600E+00  5.14715E-04  2.86323E-18  1.02248E-01  0.00000E+00  3.4E-07
  2.700E+00  5.55063E-04  2.47388E-18  8.83437E-02  0.00000E+00  5.8E-07
  2.800E+00  5.96931E-04  2.14852E-18  7.67249E-02  0.00000E+00  6.4E-07
  2.900E+00  6.40321E-04  1.87492E-18  6.69547E-02  0.00000E+00  5.2E-07
  3.000E+00  6.85233E-04  1.64339E-18  5.86867E-02  0.00000E+00  2.9E-07
  3.100E+00  7.31665E-04  1.44650E-18  5.16556E-02  0.00000E+00  1.0E-07
  3.200E+00  7.79618E-04  1.27829E-18  4.56484E-02  0.00000E+00  2.2E-07
  3.300E+00  8.29092E-04  1.13386E-18  4.04910E-02  0.00000E+00  3.6E-07
  3.400E+00  8.80086E-04  1.00928E-18  3.60420E-02  0.00000E+00  3.9E-07
  3.500E+00  9.32601E-04  9.01348E-19  3.21877E-02  0.00000E+00  3.2E-07
  3.600E+00  9.86636E-04  8.07511E-19  2.88367E-02  0.00000E+00  1.7E-07
  3.700E+00  1.04219E-03  7.25614E-19  2.59121E-02  0.00000E+00  1.0E-07
  3.800E+00  1.09927E-03  6.53865E-19  2.33499E-02  0.00000E+00  1.5E-07
  3.900E+00  1.15786E-03  5.90780E-19  2.10971E-02  0.00000E+00  2.4E-07
  4.000E+00  1.21797E-03  5.35155E-19  1.91107E-02  0.00000E+00  2.6E-07
  4.100E+00  1.27961E-03  4.85953E-19  1.73537E-02  0.00000E+00  2.1E-07
  4.200E+00  1.34276E-03  4.42300E-19  1.57948E-02  0.00000E+00  1.1E-07
  4.300E+00  1.40743E-03  4.03450E-19  1.44075E-02  0.00000E+00  1.0E-07
  4.400E+00  1.47362E-03  3.68795E-19  1.31699E-02  0.00000E+00  1.1E-07
  4.500E+00  1.54133E-03  3.37799E-19  1.20630E-02  0.00000E+00  1.7E-07
  4.600E+00  1.61056E-03  3.10010E-19  1.10706E-02  0.00000E+00  1.8E-07
  4.700E+00  1.68131E-03  2.85028E-19  1.01785E-02  0.00000E+00  1.4E-07
  4.800E+00  1.75357E-03  2.62525E-19  9.37494E-03  0.00000E+00  1.0E-07
  4.900E+00  1.82735E-03  2.42212E-19  8.64954E-03  0.00000E+00  1.0E-07
  5.000E+00  1.90265E-03  2.23837E-19  7.99335E-03  0.00000E+00  1.0E-07
  5.100E+00  1.97947E-03  2.07178E-19  7.39846E-03  0.00000E+00  1.3E-07
  5.200E+00  2.05780E-03  1.92048E-19  6.85817E-03  0.00000E+00  1.3E-07
  5.300E+00  2.13765E-03  1.78283E-19  6.36660E-03  0.00000E+00  1.0E-07
  5.400E+00  2.21902E-03  1.65736E-19  5.91855E-03  0.00000E+00  1.0E-07
  5.500E+00  2.30190E-03  1.54279E-19  5.50941E-03  0.00000E+00  1.0E-07
  5.600E+00  2.38630E-03  1.43800E-19  5.13518E-03  0.00000E+00  1.0E-07
  5.700E+00  2.47222E-03  1.34201E-19  4.79239E-03  0.00000E+00  1.0E-07
  5.800E+00  2.55965E-03  1.25394E-19  4.47791E-03  0.00000E+00  1.0E-07
  5.900E+00  2.64859E-03  1.17302E-19  4.18894E-03  0.00000E+00  1.0E-07
  6.000E+00  2.73905E-03  1.09856E-19  3.92302E-03  0.00000E+00  1.0E-07
  6.100E+00  2.83103E-03  1.02994E-19  3.67799E-03  0.00000E+00  1.0E-07
  6.200E+00  2.92452E-03  9.66638E-20  3.45193E-03  0.00000E+00  1.0E-07
  6.300E+00  3.01952E-03  9.08153E-20  3.24307E-03  0.00000E+00  1.0E-07
  6.400E+00  3.11604E-03  8.54043E-20  3.04984E-03  0.00000E+00  1.0E-07
  6.500E+00  3.21407E-03  8.03929E-20  2.87088E-03  0.00000E+00  1.0E-07
  6.600E+00  3.31362E-03  7.57463E-20  2.70495E-03  0.00000E+00  1.0E-07
  6.700E+00  3.41468E-03  7.14327E-20  2.55091E-03  0.00000E+00  1.0E-07
  6.800E+00  3.51725E-03  6.74233E-20  2.40773E-03  0.00000E+00  1.0E-07
  6.900E+00  3.62133E-03  6.36931E-20  2.27452E-03  0.00000E+00  1.0E-07
  7.000E+00  3.72692E-03  6.02190E-20  2.15046E-03  0.00000E+00  1.0E-07
  7.100E+00  3.83403E-03  5.69803E-20  2.03480E-03  0.00000E+00  1.0E-07
  7.200E+00  3.94265E-03  5.39575E-20  1.92686E-03  0.00000E+00  1.0E-07
  7.300E+00  4.05278E-03  5.11338E-20  1.82602E-03  0.00000E+00  1.0E-07
  7.400E+00  4.16442E-03  4.84937E-20  1.73174E-03  0.00000E+00  1.0E-07
  7.500E+00  4.27757E-03  4.60230E-20  1.64351E-03  0.00000E+00  1.0E-07
  7.600E+00  4.39223E-03  4.37086E-20  1.56086E-03  0.00000E+00  1.0E-07
  7.700E+00  4.50840E-03  4.15388E-20  1.48338E-03  0.00000E+00  1.0E-07
  7.800E+00  4.62608E-03  3.95029E-20  1.41068E-03  0.00000E+00  1.0E-07
  7.900E+00  4.74527E-03  3.75912E-20  1.34241E-03  0.00000E+00  1.0E-07
  8.000E+00  4.86597E-03  3.57946E-20  1.27825E-03  0.00000E+00  1.0E-07
  8.100E+00  4.98817E-03  3.41046E-20  1.21790E-03  0.00000E+00  1.0E-07
  8.200E+00  5.11188E-03  3.25139E-20  1.16109E-03  0.00000E+00  1.0E-07
  8.300E+00  5.23711E-03  3.10157E-20  1.10759E-03  0.00000E+00  1.0E-07
  8.400E+00  5.36383E-03  2.96034E-20  1.05716E-03  0.00000E+00  1.0E-07
  8.500E+00  5.49207E-03  2.82710E-20  1.00958E-03  0.00000E+00  1.0E-07
  8.600E+00  5.62181E-03  2.70134E-20  9.64666E-04  0.00000E+00  1.0E-07
  8.700E+00  5.75306E-03  2.58255E-20  9.22245E-04  0.00000E+00  1.0E-07
  8.800E+00  5.88581E-03  2.47027E-20  8.82150E-04  0.00000E+00  1.0E-07
  8.900E+00  6.02007E-03  2.36406E-20  8.44222E-04  0.00000E+00  1.0E-07
  9.000E+00  6.15583E-03  2.26355E-20  8.08329E-04  0.00000E+00  1.0E-07
  9.100E+00  6.29310E-03  2.16837E-20  7.74339E-04  0.00000E+00  1.0E-07
  9.200E+00  6.43187E-03  2.07818E-20  7.42132E-04  0.00000E+00  1.0E-07
  9.300E+00  6.57214E-03  1.99266E-20  7.11593E-04  0.00000E+00  1.0E-07
  9.400E+00  6.71392E-03  1.91154E-20  6.82623E-04  0.00000E+00  1.0E-07
  9.500E+00  6.85720E-03  1.83454E-20  6.55125E-04  0.00000E+00  1.0E-07
  9.600E+00  7.00198E-03  1.76141E-20  6.29010E-04  0.00000E+00  1.0E-07
  9.700E+00  7.14827E-03  1.69191E-20  6.04192E-04  0.00000E+00  1.0E-07
  9.800E+00  7.29605E-03  1.62584E-20  5.80598E-04  0.00000E+00  1.0E-07
  9.900E+00  7.44534E-03  1.56299E-20  5.58154E-04  0.00000E+00  1.0E-07
  1.000E+01  7.59612E-03  1.50318E-20  5.36794E-04  0.00000E+00  1.0E-07
  1.025E+01  7.97965E-03  1.36580E-20  4.87736E-04  0.00000E+00  1.0E-07
  1.050E+01  8.37255E-03  1.24389E-20  4.44202E-04  0.00000E+00  1.0E-07
  1.075E+01  8.77480E-03  1.13540E-20  4.05460E-04  0.00000E+00  1.0E-07
  1.100E+01  9.18641E-03  1.03859E-20  3.70889E-04  0.00000E+00  1.0E-07
  1.125E+01  9.60736E-03  9.51981E-21  3.39959E-04  0.00000E+00  1.0E-07
  1.150E+01  1.00376E-02  8.74296E-21  3.12217E-04  0.00000E+00  1.0E-07
  1.175E+01  1.04773E-02  8.04452E-21  2.87275E-04  0.00000E+00  1.0E-07
  1.200E+01  1.09262E-02  7.41514E-21  2.64800E-04  0.00000E+00  1.0E-07
  1.225E+01  1.13844E-02  6.84676E-21  2.44502E-04  0.00000E+00  1.0E-07
  1.250E+01  1.18520E-02  6.33237E-21  2.26133E-04  0.00000E+00  1.0E-07
  1.275E+01  1.23288E-02  5.86590E-21  2.09475E-04  0.00000E+00  1.0E-07
  1.300E+01  1.28150E-02  5.44208E-21  1.94340E-04  0.00000E+00  1.0E-07
  1.325E+01  1.33104E-02  5.05626E-21  1.80562E-04  0.00000E+00  1.0E-07
  1.350E+01  1.38150E-02  4.70445E-21  1.67999E-04  0.00000E+00  1.0E-07
  1.375E+01  1.43290E-02  4.38305E-21  1.56522E-04  0.00000E+00  1.0E-07
  1.400E+01  1.48521E-02  4.08897E-21  1.46020E-04  0.00000E+00  1.0E-07
  1.425E+01  1.53845E-02  3.81944E-21  1.36395E-04  0.00000E+00  1.0E-07
  1.450E+01  1.59262E-02  3.57204E-21  1.27560E-04  0.00000E+00  1.0E-07
  1.475E+01  1.64770E-02  3.34460E-21  1.19438E-04  0.00000E+00  1.0E-07
  1.500E+01  1.70371E-02  3.13520E-21  1.11960E-04  0.00000E+00  1.0E-07
  1.525E+01  1.76063E-02  2.94216E-21  1.05066E-04  0.00000E+00  1.0E-07
