 #
 # Subroutine ELSEPA. Elastic scattering of electrons and positrons
 #                    by neutral atoms and positive ions
 #
 # Projectile: electron
 # Kinetic energy = 3.70000E+06 eV = 1.35973E+05 a.u.
 #
 # WARNING: High-energy factorization with free-atom DF screening.
 #          Absorption, polarization and exchange corrections are
 #          switched off.
 #          Phase shifts are calculated for the bare nucleus.
 #          Scattering amplitudes are not evaluated.
 #
 # Element: Xe,  Z =  54,  atomic weight = 1.31290E+02 g/mol
 #
 # Nuclear model: Fermi distribution
 #                Average radius = 5.43827E-13 cm
 #                Skin thickness = 5.46000E-14 cm
 #
 # Number of electrons = 54
 #
 # Total elastic cross section = 5.96569E-18 cm**2 = 2.13039E-01 a0**2
 # 1st transport cross section = 2.59244E-22 cm**2 = 9.25776E-06 a0**2
 # 2nd transport cross section = 7.16746E-22 cm**2 = 2.55954E-05 a0**2
 #
 #
 # Differential cross section:                       MU=(1-COS(THETA))/2
 #
 #  THETA        MU          DCS          DCS        Sherman      error
 #  (deg)                 (cm**2/sr)   (a0**2/sr)    function
 #----------------------------------------------------------------------
  0.000E+00  0.00000E+00  7.60705E-13  2.71653E+04  0.00000E+00  1.0E-05
  1.000E-04  7.61557E-13  7.60703E-13  2.71652E+04  0.00000E+00  1.0E-05
  1.250E-04  1.18994E-12  7.60702E-13  2.71652E+04  0.00000E+00  1.0E-05
  1.500E-04  1.71346E-12  7.60700E-13  2.71651E+04  0.00000E+00  1.0E-05
  1.750E-04  2.33225E-12  7.60698E-13  2.71650E+04  0.00000E+00  1.0E-05
  2.000E-04  3.04617E-12  7.60696E-13  2.71650E+04  0.00000E+00  1.0E-05
  2.250E-04  3.85530E-12  7.60694E-13  2.71649E+04  0.00000E+00  1.0E-05
  2.500E-04  4.75964E-12  7.60692E-13  2.71648E+04  0.00000E+00  1.0E-05
  2.750E-04  5.75917E-12  7.60689E-13  2.71647E+04  0.00000E+00  1.0E-05
  3.000E-04  6.85391E-12  7.60686E-13  2.71646E+04  0.00000E+00  1.0E-05
  3.250E-04  8.04379E-12  7.60682E-13  2.71645E+04  0.00000E+00  1.0E-05
  3.500E-04  9.32893E-12  7.60679E-13  2.71643E+04  0.00000E+00  1.0E-05
  3.750E-04  1.07092E-11  7.60675E-13  2.71642E+04  0.00000E+00  1.0E-05
  4.000E-04  1.21847E-11  7.60670E-13  2.71640E+04  0.00000E+00  1.0E-05
  4.250E-04  1.37554E-11  7.60666E-13  2.71639E+04  0.00000E+00  1.0E-05
  4.500E-04  1.54213E-11  7.60661E-13  2.71637E+04  0.00000E+00  1.0E-05
  4.750E-04  1.71823E-11  7.60656E-13  2.71635E+04  0.00000E+00  1.0E-05
  5.000E-04  1.90386E-11  7.60651E-13  2.71633E+04  0.00000E+00  1.0E-05
  5.250E-04  2.09900E-11  7.60645E-13  2.71631E+04  0.00000E+00  1.0E-05
  5.500E-04  2.30367E-11  7.60640E-13  2.71629E+04  0.00000E+00  1.0E-05
  5.750E-04  2.51785E-11  7.60633E-13  2.71627E+04  0.00000E+00  1.0E-05
  6.000E-04  2.74156E-11  7.60627E-13  2.71625E+04  0.00000E+00  1.0E-05
  6.250E-04  2.97478E-11  7.60620E-13  2.71622E+04  0.00000E+00  1.0E-05
  6.500E-04  3.21752E-11  7.60613E-13  2.71620E+04  0.00000E+00  1.0E-05
  6.750E-04  3.46979E-11  7.60606E-13  2.71617E+04  0.00000E+00  1.0E-05
  7.000E-04  3.73157E-11  7.60599E-13  2.71615E+04  0.00000E+00  1.0E-05
  7.250E-04  4.00286E-11  7.60591E-13  2.71612E+04  0.00000E+00  1.0E-05
  7.500E-04  4.28368E-11  7.60583E-13  2.71609E+04  0.00000E+00  1.0E-05
  7.750E-04  4.57402E-11  7.60575E-13  2.71606E+04  0.00000E+00  1.0E-05
  8.000E-04  4.87388E-11  7.60566E-13  2.71603E+04  0.00000E+00  1.0E-05
  8.250E-04  5.18325E-11  7.60557E-13  2.71600E+04  0.00000E+00  1.0E-05
  8.500E-04  5.50215E-11  7.60548E-13  2.71597E+04  0.00000E+00  1.0E-05
  8.750E-04  5.83057E-11  7.60539E-13  2.71593E+04  0.00000E+00  1.0E-05
  9.000E-04  6.16850E-11  7.60529E-13  2.71590E+04  0.00000E+00  1.0E-05
  9.250E-04  6.51595E-11  7.60519E-13  2.71586E+04  0.00000E+00  1.0E-05
  9.500E-04  6.87293E-11  7.60509E-13  2.71583E+04  0.00000E+00  1.0E-05
  9.750E-04  7.23943E-11  7.60499E-13  2.71579E+04  0.00000E+00  1.0E-05
  1.000E-03  7.61544E-11  7.60488E-13  2.71575E+04  0.00000E+00  1.0E-05
  1.250E-03  1.18991E-10  7.60365E-13  2.71531E+04  0.00000E+00  1.0E-05
  1.500E-03  1.71347E-10  7.60216E-13  2.71478E+04  0.00000E+00  1.0E-05
  1.750E-03  2.33223E-10  7.60039E-13  2.71415E+04  0.00000E+00  1.0E-05
  2.000E-03  3.04617E-10  7.59835E-13  2.71342E+04  0.00000E+00  1.0E-05
  2.250E-03  3.85531E-10  7.59603E-13  2.71259E+04  0.00000E+00  1.0E-05
  2.500E-03  4.75965E-10  7.59345E-13  2.71167E+04  0.00000E+00  1.0E-05
  2.750E-03  5.75917E-10  7.59059E-13  2.71065E+04  0.00000E+00  1.0E-05
  3.000E-03  6.85389E-10  7.58747E-13  2.70953E+04  0.00000E+00  1.0E-05
  3.250E-03  8.04380E-10  7.58408E-13  2.70832E+04  0.00000E+00  1.0E-05
  3.500E-03  9.32891E-10  7.58041E-13  2.70701E+04  0.00000E+00  1.0E-05
  3.750E-03  1.07092E-09  7.57648E-13  2.70561E+04  0.00000E+00  1.0E-05
  4.000E-03  1.21847E-09  7.57228E-13  2.70411E+04  0.00000E+00  1.0E-05
  4.250E-03  1.37554E-09  7.56781E-13  2.70251E+04  0.00000E+00  1.0E-05
  4.500E-03  1.54213E-09  7.56307E-13  2.70082E+04  0.00000E+00  1.0E-05
  4.750E-03  1.71823E-09  7.55807E-13  2.69904E+04  0.00000E+00  1.0E-05
  5.000E-03  1.90386E-09  7.55280E-13  2.69716E+04  0.00000E+00  1.0E-05
  5.250E-03  2.09900E-09  7.54727E-13  2.69518E+04  0.00000E+00  1.0E-05
  5.500E-03  2.30367E-09  7.54148E-13  2.69311E+04  0.00000E+00  1.0E-05
  5.750E-03  2.51785E-09  7.53542E-13  2.69095E+04  0.00000E+00  1.0E-05
  6.000E-03  2.74156E-09  7.52910E-13  2.68869E+04  0.00000E+00  1.0E-05
  6.250E-03  2.97478E-09  7.52252E-13  2.68634E+04  0.00000E+00  1.0E-05
  6.500E-03  3.21752E-09  7.51568E-13  2.68390E+04  0.00000E+00  1.0E-05
  6.750E-03  3.46978E-09  7.50858E-13  2.68136E+04  0.00000E+00  1.0E-05
  7.000E-03  3.73156E-09  7.50122E-13  2.67874E+04  0.00000E+00  1.0E-05
  7.250E-03  4.00286E-09  7.49361E-13  2.67602E+04  0.00000E+00  1.0E-05
  7.500E-03  4.28368E-09  7.48574E-13  2.67321E+04  0.00000E+00  1.0E-05
  7.750E-03  4.57402E-09  7.47762E-13  2.67031E+04  0.00000E+00  1.0E-05
  8.000E-03  4.87388E-09  7.46924E-13  2.66732E+04  0.00000E+00  1.0E-05
  8.250E-03  5.18326E-09  7.46062E-13  2.66424E+04  0.00000E+00  1.0E-05
  8.500E-03  5.50215E-09  7.45174E-13  2.66107E+04  0.00000E+00  1.0E-05
  8.750E-03  5.83057E-09  7.44262E-13  2.65781E+04  0.00000E+00  1.0E-05
  9.000E-03  6.16850E-09  7.43324E-13  2.65446E+04  0.00000E+00  1.0E-05
  9.250E-03  6.51596E-09  7.42362E-13  2.65102E+04  0.00000E+00  1.0E-05
  9.500E-03  6.87293E-09  7.41376E-13  2.64750E+04  0.00000E+00  1.0E-05
  9.750E-03  7.23942E-09  7.40365E-13  2.64389E+04  0.00000E+00  1.0E-05
  1.000E-02  7.61544E-09  7.39330E-13  2.64020E+04  0.00000E+00  1.0E-05
  1.250E-02  1.18991E-08  7.27688E-13  2.59862E+04  0.00000E+00  1.0E-05
  1.500E-02  1.71347E-08  7.13719E-13  2.54874E+04  0.00000E+00  1.0E-05
  1.750E-02  2.33223E-08  6.97803E-13  2.49190E+04  0.00000E+00  1.0E-05
  2.000E-02  3.04617E-08  6.80163E-13  2.42890E+04  0.00000E+00  1.0E-05
  2.250E-02  3.85531E-08  6.60855E-13  2.35996E+04  0.00000E+00  1.0E-05
  2.500E-02  4.75965E-08  6.40142E-13  2.28599E+04  0.00000E+00  1.0E-05
  2.750E-02  5.75917E-08  6.18430E-13  2.20845E+04  0.00000E+00  1.0E-05
  3.000E-02  6.85389E-08  5.95990E-13  2.12832E+04  0.00000E+00  1.0E-05
  3.250E-02  8.04380E-08  5.72880E-13  2.04579E+04  0.00000E+00  1.0E-05
  3.500E-02  9.32891E-08  5.49218E-13  1.96129E+04  0.00000E+00  1.0E-05
  3.750E-02  1.07092E-07  5.25493E-13  1.87657E+04  0.00000E+00  1.0E-05
  4.000E-02  1.21847E-07  5.01898E-13  1.79231E+04  0.00000E+00  1.0E-05
  4.250E-02  1.37554E-07  4.78500E-13  1.70876E+04  0.00000E+00  1.0E-05
  4.500E-02  1.54213E-07  4.55191E-13  1.62552E+04  0.00000E+00  1.0E-05
  4.750E-02  1.71823E-07  4.32459E-13  1.54434E+04  0.00000E+00  1.0E-05
  5.000E-02  1.90386E-07  4.10402E-13  1.46557E+04  0.00000E+00  1.0E-05
  5.250E-02  2.09900E-07  3.89083E-13  1.38944E+04  0.00000E+00  1.0E-05
  5.500E-02  2.30367E-07  3.68226E-13  1.31496E+04  0.00000E+00  1.0E-05
  5.750E-02  2.51785E-07  3.48255E-13  1.24364E+04  0.00000E+00  1.0E-05
  6.000E-02  2.74156E-07  3.29188E-13  1.17555E+04  0.00000E+00  1.0E-05
  6.250E-02  2.97478E-07  3.11031E-13  1.11071E+04  0.00000E+00  1.0E-05
  6.500E-02  3.21752E-07  2.93583E-13  1.04840E+04  0.00000E+00  1.0E-05
  6.750E-02  3.46978E-07  2.77027E-13  9.89281E+03  0.00000E+00  1.0E-05
  7.000E-02  3.73156E-07  2.61386E-13  9.33427E+03  0.00000E+00  1.0E-05
  7.250E-02  4.00286E-07  2.46630E-13  8.80730E+03  0.00000E+00  1.0E-05
  7.500E-02  4.28368E-07  2.32627E-13  8.30727E+03  0.00000E+00  1.0E-05
  7.750E-02  4.57402E-07  2.19411E-13  7.83530E+03  0.00000E+00  1.0E-05
  8.000E-02  4.87388E-07  2.07004E-13  7.39224E+03  0.00000E+00  1.0E-05
  8.250E-02  5.18325E-07  1.95363E-13  6.97652E+03  0.00000E+00  1.0E-05
  8.500E-02  5.50215E-07  1.84404E-13  6.58517E+03  0.00000E+00  1.0E-05
  8.750E-02  5.83057E-07  1.74089E-13  6.21682E+03  0.00000E+00  1.0E-05
  9.000E-02  6.16850E-07  1.64437E-13  5.87213E+03  0.00000E+00  1.0E-05
  9.250E-02  6.51596E-07  1.55405E-13  5.54961E+03  0.00000E+00  1.0E-05
  9.500E-02  6.87293E-07  1.46939E-13  5.24730E+03  0.00000E+00  1.0E-05
  9.750E-02  7.23942E-07  1.38979E-13  4.96302E+03  0.00000E+00  1.0E-05
  1.000E-01  7.61543E-07  1.31537E-13  4.69728E+03  0.00000E+00  1.0E-05
  1.250E-01  1.18991E-06  7.86119E-14  2.80728E+03  0.00000E+00  1.0E-05
  1.500E-01  1.71347E-06  4.97101E-14  1.77518E+03  0.00000E+00  1.0E-05
  1.750E-01  2.33223E-06  3.34948E-14  1.19612E+03  0.00000E+00  1.0E-05
  2.000E-01  3.04617E-06  2.35201E-14  8.39919E+02  0.00000E+00  1.0E-05
  2.250E-01  3.85531E-06  1.68839E-14  6.02937E+02  0.00000E+00  1.0E-05
  2.500E-01  4.75964E-06  1.23644E-14  4.41540E+02  0.00000E+00  1.0E-05
  2.750E-01  5.75916E-06  9.24130E-15  3.30013E+02  0.00000E+00  1.0E-05
  3.000E-01  6.85388E-06  7.02617E-15  2.50909E+02  0.00000E+00  1.0E-05
  3.250E-01  8.04378E-06  5.41646E-15  1.93425E+02  0.00000E+00  1.0E-05
  3.500E-01  9.32888E-06  4.23622E-15  1.51278E+02  0.00000E+00  1.0E-05
  3.750E-01  1.07092E-05  3.36574E-15  1.20193E+02  0.00000E+00  1.0E-05
  4.000E-01  1.21846E-05  2.71259E-15  9.68683E+01  0.00000E+00  1.0E-05
  4.250E-01  1.37553E-05  2.21458E-15  7.90839E+01  0.00000E+00  1.0E-05
  4.500E-01  1.54212E-05  1.82866E-15  6.53027E+01  0.00000E+00  1.0E-05
  4.750E-01  1.71822E-05  1.52670E-15  5.45193E+01  0.00000E+00  1.0E-05
  5.000E-01  1.90385E-05  1.28664E-15  4.59468E+01  0.00000E+00  1.0E-05
  5.250E-01  2.09899E-05  1.09451E-15  3.90858E+01  0.00000E+00  1.0E-05
  5.500E-01  2.30365E-05  9.37132E-16  3.34656E+01  0.00000E+00  1.0E-05
  5.750E-01  2.51783E-05  8.07615E-16  2.88404E+01  0.00000E+00  1.0E-05
  6.000E-01  2.74153E-05  7.00024E-16  2.49983E+01  0.00000E+00  1.0E-05
  6.250E-01  2.97475E-05  6.09930E-16  2.17810E+01  0.00000E+00  1.0E-05
  6.500E-01  3.21749E-05  5.33645E-16  1.90568E+01  0.00000E+00  1.0E-05
  6.750E-01  3.46974E-05  4.68684E-16  1.67370E+01  0.00000E+00  1.0E-05
  7.000E-01  3.73152E-05  4.13257E-16  1.47577E+01  0.00000E+00  1.0E-05
  7.250E-01  4.00281E-05  3.65756E-16  1.30614E+01  0.00000E+00  1.0E-05
  7.500E-01  4.28362E-05  3.24698E-16  1.15952E+01  0.00000E+00  1.0E-05
  7.750E-01  4.57395E-05  2.89124E-16  1.03248E+01  0.00000E+00  1.0E-05
  8.000E-01  4.87380E-05  2.58230E-16  9.22157E+00  0.00000E+00  1.0E-05
  8.250E-01  5.18317E-05  2.31289E-16  8.25948E+00  0.00000E+00  1.0E-05
  8.500E-01  5.50205E-05  2.07664E-16  7.41581E+00  0.00000E+00  1.0E-05
  8.750E-01  5.83045E-05  1.86884E-16  6.67373E+00  0.00000E+00  1.0E-05
  9.000E-01  6.16838E-05  1.68607E-16  6.02105E+00  0.00000E+00  1.0E-05
  9.250E-01  6.51582E-05  1.52485E-16  5.44534E+00  0.00000E+00  1.0E-05
  9.500E-01  6.87277E-05  1.38216E-16  4.93578E+00  0.00000E+00  1.0E-05
  9.750E-01  7.23925E-05  1.25541E-16  4.48317E+00  0.00000E+00  1.0E-05
  1.000E+00  7.61524E-05  1.14285E-16  4.08120E+00  0.00000E+00  5.5E-06
  1.100E+00  9.21439E-05  8.00995E-17  2.86040E+00  0.00000E+00  4.2E-06
  1.200E+00  1.09658E-04  5.78172E-17  2.06469E+00  0.00000E+00  2.3E-06
  1.300E+00  1.28695E-04  4.28025E-17  1.52850E+00  0.00000E+00  4.7E-07
  1.400E+00  1.49255E-04  3.23742E-17  1.15610E+00  0.00000E+00  8.7E-07
  1.500E+00  1.71338E-04  2.49695E-17  8.91676E-01  0.00000E+00  1.6E-06
  1.600E+00  1.94942E-04  1.95806E-17  6.99235E-01  0.00000E+00  1.7E-06
  1.700E+00  2.20070E-04  1.55756E-17  5.56215E-01  0.00000E+00  1.4E-06
  1.800E+00  2.46720E-04  1.25432E-17  4.47927E-01  0.00000E+00  7.8E-07
  1.900E+00  2.74892E-04  1.02167E-17  3.64846E-01  0.00000E+00  1.4E-07
  2.000E+00  3.04586E-04  8.40689E-18  3.00215E-01  0.00000E+00  3.9E-07
  2.100E+00  3.35803E-04  6.98104E-18  2.49297E-01  0.00000E+00  7.1E-07
  2.200E+00  3.68542E-04  5.84263E-18  2.08644E-01  0.00000E+00  7.8E-07
  2.300E+00  4.02802E-04  4.92729E-18  1.75957E-01  0.00000E+00  6.3E-07
  2.400E+00  4.38585E-04  4.18440E-18  1.49428E-01  0.00000E+00  3.6E-07
  2.500E+00  4.75889E-04  3.57634E-18  1.27714E-01  0.00000E+00  1.0E-07
  2.600E+00  5.14715E-04  3.07401E-18  1.09775E-01  0.00000E+00  2.2E-07
  2.700E+00  5.55063E-04  2.65682E-18  9.48767E-02  0.00000E+00  3.9E-07
  2.800E+00  5.96931E-04  2.30806E-18  8.24224E-02  0.00000E+00  4.2E-07
  2.900E+00  6.40321E-04  2.01469E-18  7.19459E-02  0.00000E+00  3.5E-07
  3.000E+00  6.85233E-04  1.76632E-18  6.30764E-02  0.00000E+00  1.9E-07
  3.100E+00  7.31665E-04  1.55503E-18  5.55311E-02  0.00000E+00  1.0E-07
  3.200E+00  7.79618E-04  1.37445E-18  4.90826E-02  0.00000E+00  1.4E-07
  3.300E+00  8.29092E-04  1.21937E-18  4.35447E-02  0.00000E+00  2.4E-07
  3.400E+00  8.80086E-04  1.08556E-18  3.87660E-02  0.00000E+00  2.6E-07
  3.500E+00  9.32601E-04  9.69595E-19  3.46249E-02  0.00000E+00  2.1E-07
  3.600E+00  9.86636E-04  8.68753E-19  3.10237E-02  0.00000E+00  1.1E-07
  3.700E+00  1.04219E-03  7.80724E-19  2.78802E-02  0.00000E+00  1.0E-07
  3.800E+00  1.09927E-03  7.03589E-19  2.51256E-02  0.00000E+00  1.0E-07
  3.900E+00  1.15786E-03  6.35755E-19  2.27032E-02  0.00000E+00  1.6E-07
  4.000E+00  1.21797E-03  5.75934E-19  2.05670E-02  0.00000E+00  1.7E-07
  4.100E+00  1.27961E-03  5.23013E-19  1.86771E-02  0.00000E+00  1.4E-07
  4.200E+00  1.34276E-03  4.76057E-19  1.70003E-02  0.00000E+00  1.0E-07
  4.300E+00  1.40743E-03  4.34261E-19  1.55077E-02  0.00000E+00  1.0E-07
  4.400E+00  1.47362E-03  3.96975E-19  1.41762E-02  0.00000E+00  1.0E-07
  4.500E+00  1.54133E-03  3.63625E-19  1.29853E-02  0.00000E+00  1.2E-07
  4.600E+00  1.61056E-03  3.33721E-19  1.19174E-02  0.00000E+00  1.2E-07
  4.700E+00  1.68131E-03  3.06838E-19  1.09574E-02  0.00000E+00  1.0E-07
  4.800E+00  1.75357E-03  2.82621E-19  1.00926E-02  0.00000E+00  1.0E-07
  4.900E+00  1.82735E-03  2.60759E-19  9.31188E-03  0.00000E+00  1.0E-07
  5.000E+00  1.90265E-03  2.40983E-19  8.60565E-03  0.00000E+00  1.0E-07
  5.100E+00  1.97947E-03  2.23053E-19  7.96538E-03  0.00000E+00  1.0E-07
  5.200E+00  2.05780E-03  2.06769E-19  7.38385E-03  0.00000E+00  1.0E-07
  5.300E+00  2.13765E-03  1.91953E-19  6.85475E-03  0.00000E+00  1.0E-07
  5.400E+00  2.21902E-03  1.78448E-19  6.37248E-03  0.00000E+00  1.0E-07
  5.500E+00  2.30190E-03  1.66115E-19  5.93209E-03  0.00000E+00  1.0E-07
  5.600E+00  2.38630E-03  1.54836E-19  5.52928E-03  0.00000E+00  1.0E-07
  5.700E+00  2.47222E-03  1.44503E-19  5.16030E-03  0.00000E+00  1.0E-07
  5.800E+00  2.55965E-03  1.35024E-19  4.82178E-03  0.00000E+00  1.0E-07
  5.900E+00  2.64859E-03  1.26313E-19  4.51073E-03  0.00000E+00  1.0E-07
  6.000E+00  2.73905E-03  1.18297E-19  4.22447E-03  0.00000E+00  1.0E-07
  6.100E+00  2.83103E-03  1.10911E-19  3.96072E-03  0.00000E+00  1.0E-07
  6.200E+00  2.92452E-03  1.04097E-19  3.71737E-03  0.00000E+00  1.0E-07
  6.300E+00  3.01952E-03  9.78011E-20  3.49254E-03  0.00000E+00  1.0E-07
  6.400E+00  3.11604E-03  9.19763E-20  3.28453E-03  0.00000E+00  1.0E-07
  6.500E+00  3.21407E-03  8.65817E-20  3.09189E-03  0.00000E+00  1.0E-07
  6.600E+00  3.31362E-03  8.15795E-20  2.91326E-03  0.00000E+00  1.0E-07
  6.700E+00  3.41468E-03  7.69360E-20  2.74743E-03  0.00000E+00  1.0E-07
  6.800E+00  3.51725E-03  7.26198E-20  2.59330E-03  0.00000E+00  1.0E-07
  6.900E+00  3.62133E-03  6.86041E-20  2.44990E-03  0.00000E+00  1.0E-07
  7.000E+00  3.72692E-03  6.48642E-20  2.31634E-03  0.00000E+00  1.0E-07
  7.100E+00  3.83403E-03  6.13775E-20  2.19183E-03  0.00000E+00  1.0E-07
  7.200E+00  3.94265E-03  5.81233E-20  2.07562E-03  0.00000E+00  1.0E-07
  7.300E+00  4.05278E-03  5.50833E-20  1.96706E-03  0.00000E+00  1.0E-07
  7.400E+00  4.16442E-03  5.22410E-20  1.86556E-03  0.00000E+00  1.0E-07
  7.500E+00  4.27757E-03  4.95811E-20  1.77057E-03  0.00000E+00  1.0E-07
  7.600E+00  4.39223E-03  4.70894E-20  1.68159E-03  0.00000E+00  1.0E-07
  7.700E+00  4.50840E-03  4.47533E-20  1.59817E-03  0.00000E+00  1.0E-07
  7.800E+00  4.62608E-03  4.25614E-20  1.51990E-03  0.00000E+00  1.0E-07
  7.900E+00  4.74527E-03  4.05031E-20  1.44639E-03  0.00000E+00  1.0E-07
  8.000E+00  4.86597E-03  3.85687E-20  1.37731E-03  0.00000E+00  1.0E-07
  8.100E+00  4.98817E-03  3.67490E-20  1.31233E-03  0.00000E+00  1.0E-07
  8.200E+00  5.11188E-03  3.50364E-20  1.25117E-03  0.00000E+00  1.0E-07
  8.300E+00  5.23711E-03  3.34231E-20  1.19356E-03  0.00000E+00  1.0E-07
  8.400E+00  5.36383E-03  3.19024E-20  1.13925E-03  0.00000E+00  1.0E-07
  8.500E+00  5.49207E-03  3.04677E-20  1.08802E-03  0.00000E+00  1.0E-07
  8.600E+00  5.62181E-03  2.91135E-20  1.03966E-03  0.00000E+00  1.0E-07
  8.700E+00  5.75306E-03  2.78343E-20  9.93981E-04  0.00000E+00  1.0E-07
  8.800E+00  5.88581E-03  2.66252E-20  9.50803E-04  0.00000E+00  1.0E-07
  8.900E+00  6.02007E-03  2.54815E-20  9.09960E-04  0.00000E+00  1.0E-07
  9.000E+00  6.15583E-03  2.43990E-20  8.71306E-04  0.00000E+00  1.0E-07
  9.100E+00  6.29310E-03  2.33740E-20  8.34701E-04  0.00000E+00  1.0E-07
  9.200E+00  6.43187E-03  2.24027E-20  8.00014E-04  0.00000E+00  1.0E-07
  9.300E+00  6.57214E-03  2.14817E-20  7.67126E-04  0.00000E+00  1.0E-07
  9.400E+00  6.71392E-03  2.06080E-20  7.35924E-04  0.00000E+00  1.0E-07
  9.500E+00  6.85720E-03  1.97786E-20  7.06307E-04  0.00000E+00  1.0E-07
  9.600E+00  7.00198E-03  1.89910E-20  6.78179E-04  0.00000E+00  1.0E-07
  9.700E+00  7.14827E-03  1.82424E-20  6.51449E-04  0.00000E+00  1.0E-07
  9.800E+00  7.29605E-03  1.75307E-20  6.26034E-04  0.00000E+00  1.0E-07
  9.900E+00  7.44534E-03  1.68538E-20  6.01859E-04  0.00000E+00  1.0E-07
  1.000E+01  7.59612E-03  1.62095E-20  5.78851E-04  0.00000E+00  1.0E-07
  1.025E+01  7.97965E-03  1.47296E-20  5.26003E-04  0.00000E+00  1.0E-07
  1.050E+01  8.37255E-03  1.34163E-20  4.79104E-04  0.00000E+00  1.0E-07
  1.075E+01  8.77480E-03  1.22475E-20  4.37364E-04  0.00000E+00  1.0E-07
  1.100E+01  9.18641E-03  1.12044E-20  4.00116E-04  0.00000E+00  1.0E-07
  1.125E+01  9.60736E-03  1.02711E-20  3.66787E-04  0.00000E+00  1.0E-07
  1.150E+01  1.00376E-02  9.43395E-21  3.36892E-04  0.00000E+00  1.0E-07
  1.175E+01  1.04773E-02  8.68125E-21  3.10013E-04  0.00000E+00  1.0E-07
  1.200E+01  1.09262E-02  8.00293E-21  2.85790E-04  0.00000E+00  1.0E-07
  1.225E+01  1.13844E-02  7.39030E-21  2.63912E-04  0.00000E+00  1.0E-07
  1.250E+01  1.18520E-02  6.83583E-21  2.44112E-04  0.00000E+00  1.0E-07
  1.275E+01  1.23288E-02  6.33298E-21  2.26155E-04  0.00000E+00  1.0E-07
  1.300E+01  1.28150E-02  5.87606E-21  2.09838E-04  0.00000E+00  1.0E-07
  1.325E+01  1.33104E-02  5.46008E-21  1.94983E-04  0.00000E+00  1.0E-07
  1.350E+01  1.38150E-02  5.08074E-21  1.81437E-04  0.00000E+00  1.0E-07
  1.375E+01  1.43290E-02  4.73417E-21  1.69060E-04  0.00000E+00  1.0E-07
  1.400E+01  1.48521E-02  4.41702E-21  1.57735E-04  0.00000E+00  1.0E-07
  1.425E+01  1.53845E-02  4.12634E-21  1.47354E-04  0.00000E+00  1.0E-07
  1.450E+01  1.59262E-02  3.85950E-21  1.37825E-04  0.00000E+00  1.0E-07
  1.475E+01  1.64770E-02  3.61417E-21  1.29064E-04  0.00000E+00  1.0E-07
  1.500E+01  1.70371E-02  3.38829E-21  1.20998E-04  0.00000E+00  1.0E-07
  1.525E+01  1.76063E-02  3.18003E-21  1.13561E-04  0.00000E+00  1.0E-07
