 #
 # Subroutine ELSEPA. Elastic scattering of electrons and positrons
 #                    by neutral atoms and positive ions
 #
 # Projectile: electron
 # Kinetic energy = 3.70000E+06 eV = 1.35973E+05 a.u.
 #
 # WARNING: High-energy factorization with free-atom DF screening.
 #          Absorption, polarization and exchange corrections are
 #          switched off.
 #          Phase shifts are calculated for the bare nucleus.
 #          Scattering amplitudes are not evaluated.
 #
 # Element: Ag,  Z =  47,  atomic weight = 1.07868E+02 g/mol
 #
 # Nuclear model: Fermi distribution
 #                Average radius = 5.09348E-13 cm
 #                Skin thickness = 5.46000E-14 cm
 #
 # Number of electrons = 47
 #
 # Total elastic cross section = 4.34731E-18 cm**2 = 1.55245E-01 a0**2
 # 1st transport cross section = 1.94045E-22 cm**2 = 6.92947E-06 a0**2
 # 2nd transport cross section = 5.40282E-22 cm**2 = 1.92938E-05 a0**2
 #
 #
 # Differential cross section:                       MU=(1-COS(THETA))/2
 #
 #  THETA        MU          DCS          DCS        Sherman      error
 #  (deg)                 (cm**2/sr)   (a0**2/sr)    function
 #----------------------------------------------------------------------
  0.000E+00  0.00000E+00  4.94070E-13  1.76436E+04  0.00000E+00  1.0E-05
  1.000E-04  7.61557E-13  4.94069E-13  1.76435E+04  0.00000E+00  1.0E-05
  1.250E-04  1.18994E-12  4.94068E-13  1.76435E+04  0.00000E+00  1.0E-05
  1.500E-04  1.71346E-12  4.94066E-13  1.76434E+04  0.00000E+00  1.0E-05
  1.750E-04  2.33225E-12  4.94065E-13  1.76434E+04  0.00000E+00  1.0E-05
  2.000E-04  3.04617E-12  4.94063E-13  1.76433E+04  0.00000E+00  1.0E-05
  2.250E-04  3.85530E-12  4.94061E-13  1.76432E+04  0.00000E+00  1.0E-05
  2.500E-04  4.75964E-12  4.94059E-13  1.76432E+04  0.00000E+00  1.0E-05
  2.750E-04  5.75917E-12  4.94057E-13  1.76431E+04  0.00000E+00  1.0E-05
  3.000E-04  6.85391E-12  4.94054E-13  1.76430E+04  0.00000E+00  1.0E-05
  3.250E-04  8.04379E-12  4.94051E-13  1.76429E+04  0.00000E+00  1.0E-05
  3.500E-04  9.32893E-12  4.94048E-13  1.76428E+04  0.00000E+00  1.0E-05
  3.750E-04  1.07092E-11  4.94045E-13  1.76427E+04  0.00000E+00  1.0E-05
  4.000E-04  1.21847E-11  4.94041E-13  1.76425E+04  0.00000E+00  1.0E-05
  4.250E-04  1.37554E-11  4.94037E-13  1.76424E+04  0.00000E+00  1.0E-05
  4.500E-04  1.54213E-11  4.94033E-13  1.76423E+04  0.00000E+00  1.0E-05
  4.750E-04  1.71823E-11  4.94029E-13  1.76421E+04  0.00000E+00  1.0E-05
  5.000E-04  1.90386E-11  4.94025E-13  1.76419E+04  0.00000E+00  1.0E-05
  5.250E-04  2.09900E-11  4.94020E-13  1.76418E+04  0.00000E+00  1.0E-05
  5.500E-04  2.30367E-11  4.94015E-13  1.76416E+04  0.00000E+00  1.0E-05
  5.750E-04  2.51785E-11  4.94010E-13  1.76414E+04  0.00000E+00  1.0E-05
  6.000E-04  2.74156E-11  4.94004E-13  1.76412E+04  0.00000E+00  1.0E-05
  6.250E-04  2.97478E-11  4.93999E-13  1.76410E+04  0.00000E+00  1.0E-05
  6.500E-04  3.21752E-11  4.93993E-13  1.76408E+04  0.00000E+00  1.0E-05
  6.750E-04  3.46979E-11  4.93987E-13  1.76406E+04  0.00000E+00  1.0E-05
  7.000E-04  3.73157E-11  4.93981E-13  1.76404E+04  0.00000E+00  1.0E-05
  7.250E-04  4.00286E-11  4.93974E-13  1.76401E+04  0.00000E+00  1.0E-05
  7.500E-04  4.28368E-11  4.93967E-13  1.76399E+04  0.00000E+00  1.0E-05
  7.750E-04  4.57402E-11  4.93960E-13  1.76396E+04  0.00000E+00  1.0E-05
  8.000E-04  4.87388E-11  4.93953E-13  1.76394E+04  0.00000E+00  1.0E-05
  8.250E-04  5.18325E-11  4.93945E-13  1.76391E+04  0.00000E+00  1.0E-05
  8.500E-04  5.50215E-11  4.93938E-13  1.76388E+04  0.00000E+00  1.0E-05
  8.750E-04  5.83057E-11  4.93930E-13  1.76386E+04  0.00000E+00  1.0E-05
  9.000E-04  6.16850E-11  4.93922E-13  1.76383E+04  0.00000E+00  1.0E-05
  9.250E-04  6.51595E-11  4.93913E-13  1.76380E+04  0.00000E+00  1.0E-05
  9.500E-04  6.87293E-11  4.93905E-13  1.76377E+04  0.00000E+00  1.0E-05
  9.750E-04  7.23943E-11  4.93896E-13  1.76373E+04  0.00000E+00  1.0E-05
  1.000E-03  7.61544E-11  4.93887E-13  1.76370E+04  0.00000E+00  1.0E-05
  1.250E-03  1.18991E-10  4.93783E-13  1.76333E+04  0.00000E+00  1.0E-05
  1.500E-03  1.71347E-10  4.93657E-13  1.76288E+04  0.00000E+00  1.0E-05
  1.750E-03  2.33223E-10  4.93507E-13  1.76235E+04  0.00000E+00  1.0E-05
  2.000E-03  3.04617E-10  4.93335E-13  1.76173E+04  0.00000E+00  1.0E-05
  2.250E-03  3.85531E-10  4.93140E-13  1.76103E+04  0.00000E+00  1.0E-05
  2.500E-03  4.75965E-10  4.92922E-13  1.76026E+04  0.00000E+00  1.0E-05
  2.750E-03  5.75917E-10  4.92681E-13  1.75940E+04  0.00000E+00  1.0E-05
  3.000E-03  6.85389E-10  4.92418E-13  1.75846E+04  0.00000E+00  1.0E-05
  3.250E-03  8.04380E-10  4.92132E-13  1.75744E+04  0.00000E+00  1.0E-05
  3.500E-03  9.32891E-10  4.91823E-13  1.75633E+04  0.00000E+00  1.0E-05
  3.750E-03  1.07092E-09  4.91493E-13  1.75515E+04  0.00000E+00  1.0E-05
  4.000E-03  1.21847E-09  4.91139E-13  1.75389E+04  0.00000E+00  1.0E-05
  4.250E-03  1.37554E-09  4.90764E-13  1.75255E+04  0.00000E+00  1.0E-05
  4.500E-03  1.54213E-09  4.90366E-13  1.75113E+04  0.00000E+00  1.0E-05
  4.750E-03  1.71823E-09  4.89946E-13  1.74963E+04  0.00000E+00  1.0E-05
  5.000E-03  1.90386E-09  4.89505E-13  1.74805E+04  0.00000E+00  1.0E-05
  5.250E-03  2.09900E-09  4.89042E-13  1.74640E+04  0.00000E+00  1.0E-05
  5.500E-03  2.30367E-09  4.88556E-13  1.74467E+04  0.00000E+00  1.0E-05
  5.750E-03  2.51785E-09  4.88050E-13  1.74286E+04  0.00000E+00  1.0E-05
  6.000E-03  2.74156E-09  4.87522E-13  1.74097E+04  0.00000E+00  1.0E-05
  6.250E-03  2.97478E-09  4.86973E-13  1.73901E+04  0.00000E+00  1.0E-05
  6.500E-03  3.21752E-09  4.86402E-13  1.73697E+04  0.00000E+00  1.0E-05
  6.750E-03  3.46978E-09  4.85811E-13  1.73486E+04  0.00000E+00  1.0E-05
  7.000E-03  3.73156E-09  4.85199E-13  1.73268E+04  0.00000E+00  1.0E-05
  7.250E-03  4.00286E-09  4.84566E-13  1.73042E+04  0.00000E+00  1.0E-05
  7.500E-03  4.28368E-09  4.83913E-13  1.72808E+04  0.00000E+00  1.0E-05
  7.750E-03  4.57402E-09  4.83239E-13  1.72568E+04  0.00000E+00  1.0E-05
  8.000E-03  4.87388E-09  4.82546E-13  1.72320E+04  0.00000E+00  1.0E-05
  8.250E-03  5.18326E-09  4.81832E-13  1.72065E+04  0.00000E+00  1.0E-05
  8.500E-03  5.50215E-09  4.81099E-13  1.71804E+04  0.00000E+00  1.0E-05
  8.750E-03  5.83057E-09  4.80346E-13  1.71535E+04  0.00000E+00  1.0E-05
  9.000E-03  6.16850E-09  4.79574E-13  1.71259E+04  0.00000E+00  1.0E-05
  9.250E-03  6.51596E-09  4.78782E-13  1.70976E+04  0.00000E+00  1.0E-05
  9.500E-03  6.87293E-09  4.77972E-13  1.70687E+04  0.00000E+00  1.0E-05
  9.750E-03  7.23942E-09  4.77143E-13  1.70391E+04  0.00000E+00  1.0E-05
  1.000E-02  7.61544E-09  4.76295E-13  1.70088E+04  0.00000E+00  1.0E-05
  1.250E-02  1.18991E-08  4.66847E-13  1.66714E+04  0.00000E+00  1.0E-05
  1.500E-02  1.71347E-08  4.55766E-13  1.62757E+04  0.00000E+00  1.0E-05
  1.750E-02  2.33223E-08  4.43365E-13  1.58329E+04  0.00000E+00  1.0E-05
  2.000E-02  3.04617E-08  4.29904E-13  1.53521E+04  0.00000E+00  1.0E-05
  2.250E-02  3.85531E-08  4.15584E-13  1.48408E+04  0.00000E+00  1.0E-05
  2.500E-02  4.75965E-08  4.00659E-13  1.43078E+04  0.00000E+00  1.0E-05
  2.750E-02  5.75917E-08  3.85407E-13  1.37631E+04  0.00000E+00  1.0E-05
  3.000E-02  6.85389E-08  3.70034E-13  1.32142E+04  0.00000E+00  1.0E-05
  3.250E-02  8.04380E-08  3.54663E-13  1.26652E+04  0.00000E+00  1.0E-05
  3.500E-02  9.32891E-08  3.39407E-13  1.21204E+04  0.00000E+00  1.0E-05
  3.750E-02  1.07092E-07  3.24467E-13  1.15869E+04  0.00000E+00  1.0E-05
  4.000E-02  1.21847E-07  3.09938E-13  1.10681E+04  0.00000E+00  1.0E-05
  4.250E-02  1.37554E-07  2.95858E-13  1.05653E+04  0.00000E+00  1.0E-05
  4.500E-02  1.54213E-07  2.82191E-13  1.00772E+04  0.00000E+00  1.0E-05
  4.750E-02  1.71823E-07  2.69083E-13  9.60913E+03  0.00000E+00  1.0E-05
  5.000E-02  1.90386E-07  2.56550E-13  9.16156E+03  0.00000E+00  1.0E-05
  5.250E-02  2.09900E-07  2.44594E-13  8.73461E+03  0.00000E+00  1.0E-05
  5.500E-02  2.30367E-07  2.33084E-13  8.32358E+03  0.00000E+00  1.0E-05
  5.750E-02  2.51785E-07  2.22142E-13  7.93285E+03  0.00000E+00  1.0E-05
  6.000E-02  2.74156E-07  2.11753E-13  7.56184E+03  0.00000E+00  1.0E-05
  6.250E-02  2.97478E-07  2.01896E-13  7.20984E+03  0.00000E+00  1.0E-05
  6.500E-02  3.21752E-07  1.92456E-13  6.87273E+03  0.00000E+00  1.0E-05
  6.750E-02  3.46978E-07  1.83489E-13  6.55250E+03  0.00000E+00  1.0E-05
  7.000E-02  3.73156E-07  1.74991E-13  6.24904E+03  0.00000E+00  1.0E-05
  7.250E-02  4.00286E-07  1.66938E-13  5.96146E+03  0.00000E+00  1.0E-05
  7.500E-02  4.28368E-07  1.59247E-13  5.68683E+03  0.00000E+00  1.0E-05
  7.750E-02  4.57402E-07  1.51925E-13  5.42535E+03  0.00000E+00  1.0E-05
  8.000E-02  4.87388E-07  1.44986E-13  5.17754E+03  0.00000E+00  1.0E-05
  8.250E-02  5.18325E-07  1.38407E-13  4.94261E+03  0.00000E+00  1.0E-05
  8.500E-02  5.50215E-07  1.32136E-13  4.71866E+03  0.00000E+00  1.0E-05
  8.750E-02  5.83057E-07  1.26147E-13  4.50478E+03  0.00000E+00  1.0E-05
  9.000E-02  6.16850E-07  1.20466E-13  4.30194E+03  0.00000E+00  1.0E-05
  9.250E-02  6.51596E-07  1.15077E-13  4.10947E+03  0.00000E+00  1.0E-05
  9.500E-02  6.87293E-07  1.09947E-13  3.92628E+03  0.00000E+00  1.0E-05
  9.750E-02  7.23942E-07  1.05033E-13  3.75081E+03  0.00000E+00  1.0E-05
  1.000E-01  7.61543E-07  1.00369E-13  3.58425E+03  0.00000E+00  1.0E-05
  1.250E-01  1.18991E-06  6.43553E-14  2.29817E+03  0.00000E+00  1.0E-05
  1.500E-01  1.71347E-06  4.13573E-14  1.47690E+03  0.00000E+00  1.0E-05
  1.750E-01  2.33223E-06  2.77414E-14  9.90662E+02  0.00000E+00  1.0E-05
  2.000E-01  3.04617E-06  1.90660E-14  6.80860E+02  0.00000E+00  1.0E-05
  2.250E-01  3.85531E-06  1.33508E-14  4.76766E+02  0.00000E+00  1.0E-05
  2.500E-01  4.75964E-06  9.60708E-15  3.43075E+02  0.00000E+00  1.0E-05
  2.750E-01  5.75916E-06  7.10855E-15  2.53851E+02  0.00000E+00  1.0E-05
  3.000E-01  6.85388E-06  5.39166E-15  1.92540E+02  0.00000E+00  1.0E-05
  3.250E-01  8.04378E-06  4.17835E-15  1.49212E+02  0.00000E+00  1.0E-05
  3.500E-01  9.32888E-06  3.30002E-15  1.17846E+02  0.00000E+00  1.0E-05
  3.750E-01  1.07092E-05  2.65163E-15  9.46916E+01  0.00000E+00  1.0E-05
  4.000E-01  1.21846E-05  2.16205E-15  7.72081E+01  0.00000E+00  1.0E-05
  4.250E-01  1.37553E-05  1.78405E-15  6.37097E+01  0.00000E+00  1.0E-05
  4.500E-01  1.54212E-05  1.48516E-15  5.30361E+01  0.00000E+00  1.0E-05
  4.750E-01  1.71822E-05  1.24736E-15  4.45439E+01  0.00000E+00  1.0E-05
  5.000E-01  1.90385E-05  1.05537E-15  3.76880E+01  0.00000E+00  1.0E-05
  5.250E-01  2.09899E-05  8.99261E-16  3.21132E+01  0.00000E+00  1.0E-05
  5.500E-01  2.30365E-05  7.69305E-16  2.74724E+01  0.00000E+00  1.0E-05
  5.750E-01  2.51783E-05  6.61586E-16  2.36257E+01  0.00000E+00  1.0E-05
  6.000E-01  2.74153E-05  5.71646E-16  2.04138E+01  0.00000E+00  1.0E-05
  6.250E-01  2.97475E-05  4.96091E-16  1.77157E+01  0.00000E+00  1.0E-05
  6.500E-01  3.21749E-05  4.32004E-16  1.54272E+01  0.00000E+00  1.0E-05
  6.750E-01  3.46974E-05  3.77595E-16  1.34842E+01  0.00000E+00  1.0E-05
  7.000E-01  3.73152E-05  3.31330E-16  1.18320E+01  0.00000E+00  1.0E-05
  7.250E-01  4.00281E-05  2.91842E-16  1.04219E+01  0.00000E+00  1.0E-05
  7.500E-01  4.28362E-05  2.57911E-16  9.21015E+00  0.00000E+00  1.0E-05
  7.750E-01  4.57395E-05  2.28700E-16  8.16701E+00  0.00000E+00  1.0E-05
  8.000E-01  4.87380E-05  2.03486E-16  7.26663E+00  0.00000E+00  1.0E-05
  8.250E-01  5.18317E-05  1.81633E-16  6.48625E+00  0.00000E+00  1.0E-05
  8.500E-01  5.50205E-05  1.62603E-16  5.80665E+00  0.00000E+00  1.0E-05
  8.750E-01  5.83045E-05  1.45977E-16  5.21294E+00  0.00000E+00  1.0E-05
  9.000E-01  6.16838E-05  1.31430E-16  4.69346E+00  0.00000E+00  1.0E-05
  9.250E-01  6.51582E-05  1.18660E-16  4.23744E+00  0.00000E+00  1.0E-05
  9.500E-01  6.87277E-05  1.07411E-16  3.83572E+00  0.00000E+00  1.0E-05
  9.750E-01  7.23925E-05  9.74669E-17  3.48061E+00  0.00000E+00  1.0E-05
  1.000E+00  7.61524E-05  8.86624E-17  3.16619E+00  0.00000E+00  6.5E-06
  1.100E+00  9.21439E-05  6.20783E-17  2.21686E+00  0.00000E+00  4.9E-06
  1.200E+00  1.09658E-04  4.48419E-17  1.60133E+00  0.00000E+00  2.7E-06
  1.300E+00  1.28695E-04  3.32371E-17  1.18692E+00  0.00000E+00  5.3E-07
  1.400E+00  1.49255E-04  2.51618E-17  8.98544E-01  0.00000E+00  1.1E-06
  1.500E+00  1.71338E-04  1.94156E-17  6.93344E-01  0.00000E+00  1.9E-06
  1.600E+00  1.94942E-04  1.52250E-17  5.43696E-01  0.00000E+00  2.0E-06
  1.700E+00  2.20070E-04  1.21045E-17  4.32261E-01  0.00000E+00  1.6E-06
  1.800E+00  2.46720E-04  9.73834E-18  3.47763E-01  0.00000E+00  9.1E-07
  1.900E+00  2.74892E-04  7.92252E-18  2.82918E-01  0.00000E+00  1.4E-07
  2.000E+00  3.04586E-04  6.51017E-18  2.32482E-01  0.00000E+00  4.8E-07
  2.100E+00  3.35803E-04  5.39807E-18  1.92768E-01  0.00000E+00  8.5E-07
  2.200E+00  3.68542E-04  4.51117E-18  1.61097E-01  0.00000E+00  9.2E-07
  2.300E+00  4.02802E-04  3.79898E-18  1.35664E-01  0.00000E+00  7.4E-07
  2.400E+00  4.38585E-04  3.22177E-18  1.15051E-01  0.00000E+00  4.1E-07
  2.500E+00  4.75889E-04  2.75002E-18  9.82051E-02  0.00000E+00  1.0E-07
  2.600E+00  5.14715E-04  2.36103E-18  8.43137E-02  0.00000E+00  2.8E-07
  2.700E+00  5.55063E-04  2.03845E-18  7.27945E-02  0.00000E+00  4.6E-07
  2.800E+00  5.96931E-04  1.76918E-18  6.31787E-02  0.00000E+00  5.0E-07
  2.900E+00  6.40321E-04  1.54298E-18  5.51009E-02  0.00000E+00  4.1E-07
  3.000E+00  6.85233E-04  1.35177E-18  4.82725E-02  0.00000E+00  2.2E-07
  3.100E+00  7.31665E-04  1.18931E-18  4.24709E-02  0.00000E+00  1.0E-07
  3.200E+00  7.79618E-04  1.05061E-18  3.75178E-02  0.00000E+00  1.8E-07
  3.300E+00  8.29092E-04  9.31602E-19  3.32681E-02  0.00000E+00  2.9E-07
  3.400E+00  8.80086E-04  8.29016E-19  2.96047E-02  0.00000E+00  3.1E-07
  3.500E+00  9.32601E-04  7.40194E-19  2.64328E-02  0.00000E+00  2.5E-07
  3.600E+00  9.86636E-04  6.63003E-19  2.36763E-02  0.00000E+00  1.3E-07
  3.700E+00  1.04219E-03  5.95660E-19  2.12714E-02  0.00000E+00  1.0E-07
  3.800E+00  1.09927E-03  5.36683E-19  1.91653E-02  0.00000E+00  1.3E-07
  3.900E+00  1.15786E-03  4.84846E-19  1.73142E-02  0.00000E+00  1.9E-07
  4.000E+00  1.21797E-03  4.39148E-19  1.56823E-02  0.00000E+00  2.0E-07
  4.100E+00  1.27961E-03  3.98735E-19  1.42391E-02  0.00000E+00  1.6E-07
  4.200E+00  1.34276E-03  3.62887E-19  1.29589E-02  0.00000E+00  1.0E-07
  4.300E+00  1.40743E-03  3.30988E-19  1.18198E-02  0.00000E+00  1.0E-07
  4.400E+00  1.47362E-03  3.02536E-19  1.08038E-02  0.00000E+00  1.0E-07
  4.500E+00  1.54133E-03  2.77092E-19  9.89514E-03  0.00000E+00  1.4E-07
  4.600E+00  1.61056E-03  2.54281E-19  9.08054E-03  0.00000E+00  1.4E-07
  4.700E+00  1.68131E-03  2.33777E-19  8.34832E-03  0.00000E+00  1.1E-07
  4.800E+00  1.75357E-03  2.15308E-19  7.68878E-03  0.00000E+00  1.0E-07
  4.900E+00  1.82735E-03  1.98637E-19  7.09345E-03  0.00000E+00  1.0E-07
  5.000E+00  1.90265E-03  1.83557E-19  6.55493E-03  0.00000E+00  1.0E-07
  5.100E+00  1.97947E-03  1.69886E-19  6.06674E-03  0.00000E+00  1.0E-07
  5.200E+00  2.05780E-03  1.57470E-19  5.62336E-03  0.00000E+00  1.0E-07
  5.300E+00  2.13765E-03  1.46174E-19  5.21997E-03  0.00000E+00  1.0E-07
  5.400E+00  2.21902E-03  1.35878E-19  4.85231E-03  0.00000E+00  1.0E-07
  5.500E+00  2.30190E-03  1.26477E-19  4.51657E-03  0.00000E+00  1.0E-07
  5.600E+00  2.38630E-03  1.17878E-19  4.20950E-03  0.00000E+00  1.0E-07
  5.700E+00  2.47222E-03  1.10001E-19  3.92822E-03  0.00000E+00  1.0E-07
  5.800E+00  2.55965E-03  1.02775E-19  3.67018E-03  0.00000E+00  1.0E-07
  5.900E+00  2.64859E-03  9.61358E-20  3.43307E-03  0.00000E+00  1.0E-07
  6.000E+00  2.73905E-03  9.00258E-20  3.21488E-03  0.00000E+00  1.0E-07
  6.100E+00  2.83103E-03  8.43961E-20  3.01384E-03  0.00000E+00  1.0E-07
  6.200E+00  2.92452E-03  7.92021E-20  2.82836E-03  0.00000E+00  1.0E-07
  6.300E+00  3.01952E-03  7.44037E-20  2.65701E-03  0.00000E+00  1.0E-07
  6.400E+00  3.11604E-03  6.99644E-20  2.49847E-03  0.00000E+00  1.0E-07
  6.500E+00  3.21407E-03  6.58532E-20  2.35166E-03  0.00000E+00  1.0E-07
  6.600E+00  3.31362E-03  6.20412E-20  2.21553E-03  0.00000E+00  1.0E-07
  6.700E+00  3.41468E-03  5.85026E-20  2.08917E-03  0.00000E+00  1.0E-07
  6.800E+00  3.51725E-03  5.52136E-20  1.97171E-03  0.00000E+00  1.0E-07
  6.900E+00  3.62133E-03  5.21538E-20  1.86245E-03  0.00000E+00  1.0E-07
  7.000E+00  3.72692E-03  4.93043E-20  1.76069E-03  0.00000E+00  1.0E-07
  7.100E+00  3.83403E-03  4.66479E-20  1.66583E-03  0.00000E+00  1.0E-07
  7.200E+00  3.94265E-03  4.41687E-20  1.57729E-03  0.00000E+00  1.0E-07
  7.300E+00  4.05278E-03  4.18530E-20  1.49460E-03  0.00000E+00  1.0E-07
  7.400E+00  4.16442E-03  3.96879E-20  1.41728E-03  0.00000E+00  1.0E-07
  7.500E+00  4.27757E-03  3.76619E-20  1.34493E-03  0.00000E+00  1.0E-07
  7.600E+00  4.39223E-03  3.57642E-20  1.27716E-03  0.00000E+00  1.0E-07
  7.700E+00  4.50840E-03  3.39851E-20  1.21363E-03  0.00000E+00  1.0E-07
  7.800E+00  4.62608E-03  3.23159E-20  1.15402E-03  0.00000E+00  1.0E-07
  7.900E+00  4.74527E-03  3.07487E-20  1.09806E-03  0.00000E+00  1.0E-07
  8.000E+00  4.86597E-03  2.92758E-20  1.04546E-03  0.00000E+00  1.0E-07
  8.100E+00  4.98817E-03  2.78905E-20  9.95989E-04  0.00000E+00  1.0E-07
  8.200E+00  5.11188E-03  2.65868E-20  9.49430E-04  0.00000E+00  1.0E-07
  8.300E+00  5.23711E-03  2.53588E-20  9.05578E-04  0.00000E+00  1.0E-07
  8.400E+00  5.36383E-03  2.42013E-20  8.64245E-04  0.00000E+00  1.0E-07
  8.500E+00  5.49207E-03  2.31095E-20  8.25256E-04  0.00000E+00  1.0E-07
  8.600E+00  5.62181E-03  2.20790E-20  7.88455E-04  0.00000E+00  1.0E-07
  8.700E+00  5.75306E-03  2.11057E-20  7.53697E-04  0.00000E+00  1.0E-07
  8.800E+00  5.88581E-03  2.01858E-20  7.20847E-04  0.00000E+00  1.0E-07
  8.900E+00  6.02007E-03  1.93157E-20  6.89776E-04  0.00000E+00  1.0E-07
  9.000E+00  6.15583E-03  1.84923E-20  6.60373E-04  0.00000E+00  1.0E-07
  9.100E+00  6.29310E-03  1.77127E-20  6.32532E-04  0.00000E+00  1.0E-07
  9.200E+00  6.43187E-03  1.69740E-20  6.06153E-04  0.00000E+00  1.0E-07
  9.300E+00  6.57214E-03  1.62737E-20  5.81143E-04  0.00000E+00  1.0E-07
  9.400E+00  6.71392E-03  1.56093E-20  5.57419E-04  0.00000E+00  1.0E-07
  9.500E+00  6.85720E-03  1.49788E-20  5.34902E-04  0.00000E+00  1.0E-07
  9.600E+00  7.00198E-03  1.43800E-20  5.13520E-04  0.00000E+00  1.0E-07
  9.700E+00  7.14827E-03  1.38111E-20  4.93202E-04  0.00000E+00  1.0E-07
  9.800E+00  7.29605E-03  1.32702E-20  4.73887E-04  0.00000E+00  1.0E-07
  9.900E+00  7.44534E-03  1.27557E-20  4.55515E-04  0.00000E+00  1.0E-07
  1.000E+01  7.59612E-03  1.22661E-20  4.38032E-04  0.00000E+00  1.0E-07
  1.025E+01  7.97965E-03  1.11419E-20  3.97883E-04  0.00000E+00  1.0E-07
  1.050E+01  8.37255E-03  1.01444E-20  3.62263E-04  0.00000E+00  1.0E-07
  1.075E+01  8.77480E-03  9.25694E-21  3.30571E-04  0.00000E+00  1.0E-07
  1.100E+01  9.18641E-03  8.46518E-21  3.02297E-04  0.00000E+00  1.0E-07
  1.125E+01  9.60736E-03  7.75695E-21  2.77006E-04  0.00000E+00  1.0E-07
  1.150E+01  1.00376E-02  7.12187E-21  2.54327E-04  0.00000E+00  1.0E-07
  1.175E+01  1.04773E-02  6.55101E-21  2.33941E-04  0.00000E+00  1.0E-07
  1.200E+01  1.09262E-02  6.03671E-21  2.15575E-04  0.00000E+00  1.0E-07
  1.225E+01  1.13844E-02  5.57235E-21  1.98992E-04  0.00000E+00  1.0E-07
  1.250E+01  1.18520E-02  5.15219E-21  1.83988E-04  0.00000E+00  1.0E-07
  1.275E+01  1.23288E-02  4.77126E-21  1.70385E-04  0.00000E+00  1.0E-07
  1.300E+01  1.28150E-02  4.42522E-21  1.58027E-04  0.00000E+00  1.0E-07
  1.325E+01  1.33104E-02  4.11028E-21  1.46781E-04  0.00000E+00  1.0E-07
  1.350E+01  1.38150E-02  3.82316E-21  1.36528E-04  0.00000E+00  1.0E-07
  1.375E+01  1.43290E-02  3.56092E-21  1.27163E-04  0.00000E+00  1.0E-07
  1.400E+01  1.48521E-02  3.32101E-21  1.18596E-04  0.00000E+00  1.0E-07
  1.425E+01  1.53845E-02  3.10119E-21  1.10745E-04  0.00000E+00  1.0E-07
  1.450E+01  1.59262E-02  2.89945E-21  1.03541E-04  0.00000E+00  1.0E-07
  1.475E+01  1.64770E-02  2.71403E-21  9.69196E-05  0.00000E+00  1.0E-07
  1.500E+01  1.70371E-02  2.54335E-21  9.08247E-05  0.00000E+00  1.0E-07
  1.525E+01  1.76063E-02  2.38603E-21  8.52069E-05  0.00000E+00  1.0E-07
