 #
 # Subroutine ELSEPA. Elastic scattering of electrons and positrons
 #                    by neutral atoms and positive ions
 #
 # Projectile: electron
 # Kinetic energy = 3.70000E+06 eV = 1.35973E+05 a.u.
 #
 # WARNING: High-energy factorization with free-atom DF screening.
 #          Absorption, polarization and exchange corrections are
 #          switched off.
 #          Phase shifts are calculated for the bare nucleus.
 #          Scattering amplitudes are not evaluated.
 #
 # Element: Al,  Z =  13,  atomic weight = 2.69815E+01 g/mol
 #
 # Nuclear model: Fermi distribution
 #                Average radius = 3.20927E-13 cm
 #                Skin thickness = 5.46000E-14 cm
 #
 # Number of electrons = 13
 #
 # Total elastic cross section = 7.84625E-19 cm**2 = 2.80195E-02 a0**2
 # 1st transport cross section = 1.47039E-23 cm**2 = 5.25088E-07 a0**2
 # 2nd transport cross section = 4.19471E-23 cm**2 = 1.49796E-06 a0**2
 #
 #
 # Differential cross section:                       MU=(1-COS(THETA))/2
 #
 #  THETA        MU          DCS          DCS        Sherman      error
 #  (deg)                 (cm**2/sr)   (a0**2/sr)    function
 #----------------------------------------------------------------------
  0.000E+00  0.00000E+00  2.35522E-13  8.41064E+03  0.00000E+00  1.0E-05
  1.000E-04  7.61557E-13  2.35520E-13  8.41058E+03  0.00000E+00  1.0E-05
  1.250E-04  1.18994E-12  2.35519E-13  8.41055E+03  0.00000E+00  1.0E-05
  1.500E-04  1.71346E-12  2.35518E-13  8.41051E+03  0.00000E+00  1.0E-05
  1.750E-04  2.33225E-12  2.35517E-13  8.41046E+03  0.00000E+00  1.0E-05
  2.000E-04  3.04617E-12  2.35515E-13  8.41041E+03  0.00000E+00  1.0E-05
  2.250E-04  3.85530E-12  2.35514E-13  8.41035E+03  0.00000E+00  1.0E-05
  2.500E-04  4.75964E-12  2.35512E-13  8.41028E+03  0.00000E+00  1.0E-05
  2.750E-04  5.75917E-12  2.35510E-13  8.41021E+03  0.00000E+00  1.0E-05
  3.000E-04  6.85391E-12  2.35507E-13  8.41012E+03  0.00000E+00  1.0E-05
  3.250E-04  8.04379E-12  2.35505E-13  8.41004E+03  0.00000E+00  1.0E-05
  3.500E-04  9.32893E-12  2.35502E-13  8.40994E+03  0.00000E+00  1.0E-05
  3.750E-04  1.07092E-11  2.35499E-13  8.40984E+03  0.00000E+00  1.0E-05
  4.000E-04  1.21847E-11  2.35496E-13  8.40973E+03  0.00000E+00  1.0E-05
  4.250E-04  1.37554E-11  2.35493E-13  8.40961E+03  0.00000E+00  1.0E-05
  4.500E-04  1.54213E-11  2.35490E-13  8.40949E+03  0.00000E+00  1.0E-05
  4.750E-04  1.71823E-11  2.35486E-13  8.40936E+03  0.00000E+00  1.0E-05
  5.000E-04  1.90386E-11  2.35482E-13  8.40922E+03  0.00000E+00  1.0E-05
  5.250E-04  2.09900E-11  2.35478E-13  8.40907E+03  0.00000E+00  1.0E-05
  5.500E-04  2.30367E-11  2.35474E-13  8.40892E+03  0.00000E+00  1.0E-05
  5.750E-04  2.51785E-11  2.35469E-13  8.40876E+03  0.00000E+00  1.0E-05
  6.000E-04  2.74156E-11  2.35465E-13  8.40860E+03  0.00000E+00  1.0E-05
  6.250E-04  2.97478E-11  2.35460E-13  8.40842E+03  0.00000E+00  1.0E-05
  6.500E-04  3.21752E-11  2.35455E-13  8.40824E+03  0.00000E+00  1.0E-05
  6.750E-04  3.46979E-11  2.35450E-13  8.40806E+03  0.00000E+00  1.0E-05
  7.000E-04  3.73157E-11  2.35444E-13  8.40786E+03  0.00000E+00  1.0E-05
  7.250E-04  4.00286E-11  2.35438E-13  8.40766E+03  0.00000E+00  1.0E-05
  7.500E-04  4.28368E-11  2.35433E-13  8.40745E+03  0.00000E+00  1.0E-05
  7.750E-04  4.57402E-11  2.35427E-13  8.40724E+03  0.00000E+00  1.0E-05
  8.000E-04  4.87388E-11  2.35420E-13  8.40702E+03  0.00000E+00  1.0E-05
  8.250E-04  5.18325E-11  2.35414E-13  8.40679E+03  0.00000E+00  1.0E-05
  8.500E-04  5.50215E-11  2.35407E-13  8.40655E+03  0.00000E+00  1.0E-05
  8.750E-04  5.83057E-11  2.35401E-13  8.40631E+03  0.00000E+00  1.0E-05
  9.000E-04  6.16850E-11  2.35394E-13  8.40606E+03  0.00000E+00  1.0E-05
  9.250E-04  6.51595E-11  2.35386E-13  8.40580E+03  0.00000E+00  1.0E-05
  9.500E-04  6.87293E-11  2.35379E-13  8.40553E+03  0.00000E+00  1.0E-05
  9.750E-04  7.23943E-11  2.35371E-13  8.40526E+03  0.00000E+00  1.0E-05
  1.000E-03  7.61544E-11  2.35364E-13  8.40499E+03  0.00000E+00  1.0E-05
  1.250E-03  1.18991E-10  2.35275E-13  8.40182E+03  0.00000E+00  1.0E-05
  1.500E-03  1.71347E-10  2.35167E-13  8.39795E+03  0.00000E+00  1.0E-05
  1.750E-03  2.33223E-10  2.35039E-13  8.39338E+03  0.00000E+00  1.0E-05
  2.000E-03  3.04617E-10  2.34891E-13  8.38812E+03  0.00000E+00  1.0E-05
  2.250E-03  3.85531E-10  2.34725E-13  8.38217E+03  0.00000E+00  1.0E-05
  2.500E-03  4.75965E-10  2.34538E-13  8.37552E+03  0.00000E+00  1.0E-05
  2.750E-03  5.75917E-10  2.34333E-13  8.36818E+03  0.00000E+00  1.0E-05
  3.000E-03  6.85389E-10  2.34108E-13  8.36015E+03  0.00000E+00  1.0E-05
  3.250E-03  8.04380E-10  2.33864E-13  8.35144E+03  0.00000E+00  1.0E-05
  3.500E-03  9.32891E-10  2.33601E-13  8.34205E+03  0.00000E+00  1.0E-05
  3.750E-03  1.07092E-09  2.33319E-13  8.33198E+03  0.00000E+00  1.0E-05
  4.000E-03  1.21847E-09  2.33018E-13  8.32123E+03  0.00000E+00  1.0E-05
  4.250E-03  1.37554E-09  2.32699E-13  8.30982E+03  0.00000E+00  1.0E-05
  4.500E-03  1.54213E-09  2.32360E-13  8.29773E+03  0.00000E+00  1.0E-05
  4.750E-03  1.71823E-09  2.32003E-13  8.28499E+03  0.00000E+00  1.0E-05
  5.000E-03  1.90386E-09  2.31628E-13  8.27159E+03  0.00000E+00  1.0E-05
  5.250E-03  2.09900E-09  2.31235E-13  8.25754E+03  0.00000E+00  1.0E-05
  5.500E-03  2.30367E-09  2.30823E-13  8.24283E+03  0.00000E+00  1.0E-05
  5.750E-03  2.51785E-09  2.30393E-13  8.22749E+03  0.00000E+00  1.0E-05
  6.000E-03  2.74156E-09  2.29946E-13  8.21151E+03  0.00000E+00  1.0E-05
  6.250E-03  2.97478E-09  2.29480E-13  8.19489E+03  0.00000E+00  1.0E-05
  6.500E-03  3.21752E-09  2.28998E-13  8.17765E+03  0.00000E+00  1.0E-05
  6.750E-03  3.46978E-09  2.28498E-13  8.15980E+03  0.00000E+00  1.0E-05
  7.000E-03  3.73156E-09  2.27980E-13  8.14132E+03  0.00000E+00  1.0E-05
  7.250E-03  4.00286E-09  2.27446E-13  8.12224E+03  0.00000E+00  1.0E-05
  7.500E-03  4.28368E-09  2.26895E-13  8.10256E+03  0.00000E+00  1.0E-05
  7.750E-03  4.57402E-09  2.26327E-13  8.08229E+03  0.00000E+00  1.0E-05
  8.000E-03  4.87388E-09  2.25743E-13  8.06142E+03  0.00000E+00  1.0E-05
  8.250E-03  5.18326E-09  2.25142E-13  8.03998E+03  0.00000E+00  1.0E-05
  8.500E-03  5.50215E-09  2.24526E-13  8.01798E+03  0.00000E+00  1.0E-05
  8.750E-03  5.83057E-09  2.23894E-13  7.99539E+03  0.00000E+00  1.0E-05
  9.000E-03  6.16850E-09  2.23246E-13  7.97225E+03  0.00000E+00  1.0E-05
  9.250E-03  6.51596E-09  2.22583E-13  7.94857E+03  0.00000E+00  1.0E-05
  9.500E-03  6.87293E-09  2.21904E-13  7.92434E+03  0.00000E+00  1.0E-05
  9.750E-03  7.23942E-09  2.21210E-13  7.89956E+03  0.00000E+00  1.0E-05
  1.000E-02  7.61544E-09  2.20502E-13  7.87428E+03  0.00000E+00  1.0E-05
  1.250E-02  1.18991E-08  2.12663E-13  7.59432E+03  0.00000E+00  1.0E-05
  1.500E-02  1.71347E-08  2.03621E-13  7.27145E+03  0.00000E+00  1.0E-05
  1.750E-02  2.33223E-08  1.93643E-13  6.91510E+03  0.00000E+00  1.0E-05
  2.000E-02  3.04617E-08  1.82993E-13  6.53481E+03  0.00000E+00  1.0E-05
  2.250E-02  3.85531E-08  1.71930E-13  6.13972E+03  0.00000E+00  1.0E-05
  2.500E-02  4.75965E-08  1.60688E-13  5.73828E+03  0.00000E+00  1.0E-05
  2.750E-02  5.75917E-08  1.49477E-13  5.33791E+03  0.00000E+00  1.0E-05
  3.000E-02  6.85389E-08  1.38471E-13  4.94488E+03  0.00000E+00  1.0E-05
  3.250E-02  8.04380E-08  1.27812E-13  4.56427E+03  0.00000E+00  1.0E-05
  3.500E-02  9.32891E-08  1.17567E-13  4.19840E+03  0.00000E+00  1.0E-05
  3.750E-02  1.07092E-07  1.07848E-13  3.85131E+03  0.00000E+00  1.0E-05
  4.000E-02  1.21847E-07  9.87857E-14  3.52770E+03  0.00000E+00  1.0E-05
  4.250E-02  1.37554E-07  9.03911E-14  3.22793E+03  0.00000E+00  1.0E-05
  4.500E-02  1.54213E-07  8.25013E-14  2.94617E+03  0.00000E+00  1.0E-05
  4.750E-02  1.71823E-07  7.52686E-14  2.68789E+03  0.00000E+00  1.0E-05
  5.000E-02  1.90386E-07  6.86635E-14  2.45202E+03  0.00000E+00  1.0E-05
  5.250E-02  2.09900E-07  6.26084E-14  2.23579E+03  0.00000E+00  1.0E-05
  5.500E-02  2.30367E-07  5.70823E-14  2.03844E+03  0.00000E+00  1.0E-05
  5.750E-02  2.51785E-07  5.20726E-14  1.85955E+03  0.00000E+00  1.0E-05
  6.000E-02  2.74156E-07  4.75344E-14  1.69748E+03  0.00000E+00  1.0E-05
  6.250E-02  2.97478E-07  4.34187E-14  1.55051E+03  0.00000E+00  1.0E-05
  6.500E-02  3.21752E-07  3.96980E-14  1.41764E+03  0.00000E+00  1.0E-05
  6.750E-02  3.46978E-07  3.63352E-14  1.29755E+03  0.00000E+00  1.0E-05
  7.000E-02  3.73156E-07  3.33050E-14  1.18934E+03  0.00000E+00  1.0E-05
  7.250E-02  4.00286E-07  3.05675E-14  1.09159E+03  0.00000E+00  1.0E-05
  7.500E-02  4.28368E-07  2.80910E-14  1.00315E+03  0.00000E+00  1.0E-05
  7.750E-02  4.57402E-07  2.58570E-14  9.23371E+02  0.00000E+00  1.0E-05
  8.000E-02  4.87388E-07  2.38447E-14  8.51509E+02  0.00000E+00  1.0E-05
  8.250E-02  5.18325E-07  2.20196E-14  7.86335E+02  0.00000E+00  1.0E-05
  8.500E-02  5.50215E-07  2.03628E-14  7.27170E+02  0.00000E+00  1.0E-05
  8.750E-02  5.83057E-07  1.88752E-14  6.74047E+02  0.00000E+00  1.0E-05
  9.000E-02  6.16850E-07  1.75217E-14  6.25711E+02  0.00000E+00  1.0E-05
  9.250E-02  6.51596E-07  1.62885E-14  5.81672E+02  0.00000E+00  1.0E-05
  9.500E-02  6.87293E-07  1.51719E-14  5.41798E+02  0.00000E+00  1.0E-05
  9.750E-02  7.23942E-07  1.41576E-14  5.05577E+02  0.00000E+00  1.0E-05
  1.000E-01  7.61543E-07  1.32297E-14  4.72442E+02  0.00000E+00  1.0E-05
  1.250E-01  1.18991E-06  7.30936E-15  2.61022E+02  0.00000E+00  1.0E-05
  1.500E-01  1.71347E-06  4.55181E-15  1.62548E+02  0.00000E+00  1.0E-05
  1.750E-01  2.33223E-06  3.06037E-15  1.09288E+02  0.00000E+00  1.0E-05
  2.000E-01  3.04617E-06  2.15622E-15  7.70000E+01  0.00000E+00  1.0E-05
  2.250E-01  3.85531E-06  1.56475E-15  5.58783E+01  0.00000E+00  1.0E-05
  2.500E-01  4.75964E-06  1.15857E-15  4.13732E+01  0.00000E+00  1.0E-05
  2.750E-01  5.75916E-06  8.71026E-16  3.11049E+01  0.00000E+00  1.0E-05
  3.000E-01  6.85388E-06  6.63328E-16  2.36879E+01  0.00000E+00  1.0E-05
  3.250E-01  8.04378E-06  5.11034E-16  1.82494E+01  0.00000E+00  1.0E-05
  3.500E-01  9.32888E-06  3.97280E-16  1.41871E+01  0.00000E+00  1.0E-05
  3.750E-01  1.07092E-05  3.13203E-16  1.11847E+01  0.00000E+00  1.0E-05
  4.000E-01  1.21846E-05  2.48739E-16  8.88263E+00  0.00000E+00  1.0E-05
  4.250E-01  1.37553E-05  1.99681E-16  7.13073E+00  0.00000E+00  1.0E-05
  4.500E-01  1.54212E-05  1.61890E-16  5.78121E+00  0.00000E+00  1.0E-05
  4.750E-01  1.71822E-05  1.32420E-16  4.72881E+00  0.00000E+00  1.0E-05
  5.000E-01  1.90385E-05  1.09160E-16  3.89818E+00  0.00000E+00  1.0E-05
  5.250E-01  2.09899E-05  9.07608E-17  3.24113E+00  0.00000E+00  1.0E-05
  5.500E-01  2.30365E-05  7.60537E-17  2.71593E+00  0.00000E+00  1.0E-05
  5.750E-01  2.51783E-05  6.41837E-17  2.29204E+00  0.00000E+00  1.0E-05
  6.000E-01  2.74153E-05  5.45306E-17  1.94732E+00  0.00000E+00  1.0E-05
  6.250E-01  2.97475E-05  4.66317E-17  1.66525E+00  0.00000E+00  1.0E-05
  6.500E-01  3.21749E-05  4.01190E-17  1.43268E+00  0.00000E+00  1.0E-05
  6.750E-01  3.46974E-05  3.47085E-17  1.23946E+00  0.00000E+00  1.0E-05
  7.000E-01  3.73152E-05  3.01869E-17  1.07799E+00  0.00000E+00  1.0E-05
  7.250E-01  4.00281E-05  2.63855E-17  9.42244E-01  0.00000E+00  1.0E-05
  7.500E-01  4.28362E-05  2.31705E-17  8.27435E-01  0.00000E+00  1.0E-05
  7.750E-01  4.57395E-05  2.04348E-17  7.29739E-01  0.00000E+00  1.0E-05
  8.000E-01  4.87380E-05  1.80957E-17  6.46210E-01  0.00000E+00  1.0E-05
  8.250E-01  5.18317E-05  1.60860E-17  5.74443E-01  0.00000E+00  1.0E-05
  8.500E-01  5.50205E-05  1.43512E-17  5.12490E-01  0.00000E+00  1.0E-05
  8.750E-01  5.83045E-05  1.28459E-17  4.58737E-01  0.00000E+00  1.0E-05
  9.000E-01  6.16838E-05  1.15354E-17  4.11937E-01  0.00000E+00  1.0E-05
  9.250E-01  6.51582E-05  1.03899E-17  3.71029E-01  0.00000E+00  1.0E-05
  9.500E-01  6.87277E-05  9.38458E-18  3.35130E-01  0.00000E+00  1.0E-05
  9.750E-01  7.23925E-05  8.49884E-18  3.03499E-01  0.00000E+00  1.0E-05
  1.000E+00  7.61524E-05  7.71633E-18  2.75555E-01  0.00000E+00  3.1E-05
  1.100E+00  9.21439E-05  5.36372E-18  1.91542E-01  0.00000E+00  2.2E-05
  1.200E+00  1.09658E-04  3.84677E-18  1.37371E-01  0.00000E+00  1.2E-05
  1.300E+00  1.28695E-04  2.83139E-18  1.01111E-01  0.00000E+00  1.7E-06
  1.400E+00  1.49255E-04  2.13021E-18  7.60712E-02  0.00000E+00  5.8E-06
  1.500E+00  1.71338E-04  1.63314E-18  5.83205E-02  0.00000E+00  9.3E-06
  1.600E+00  1.94942E-04  1.27272E-18  4.54497E-02  0.00000E+00  9.5E-06
  1.700E+00  2.20070E-04  1.00623E-18  3.59332E-02  0.00000E+00  7.3E-06
  1.800E+00  2.46720E-04  8.05779E-19  2.87749E-02  0.00000E+00  3.8E-06
  1.900E+00  2.74892E-04  6.52688E-19  2.33079E-02  0.00000E+00  2.3E-07
  2.000E+00  3.04586E-04  5.34169E-19  1.90755E-02  0.00000E+00  2.7E-06
  2.100E+00  3.35803E-04  4.41281E-19  1.57584E-02  0.00000E+00  4.2E-06
  2.200E+00  3.68542E-04  3.67667E-19  1.31296E-02  0.00000E+00  4.3E-06
  2.300E+00  4.02802E-04  3.08733E-19  1.10251E-02  0.00000E+00  3.3E-06
  2.400E+00  4.38585E-04  2.61112E-19  9.32449E-03  0.00000E+00  1.7E-06
  2.500E+00  4.75889E-04  2.22302E-19  7.93856E-03  0.00000E+00  2.0E-07
  2.600E+00  5.14715E-04  1.90422E-19  6.80011E-03  0.00000E+00  1.6E-06
  2.700E+00  5.55063E-04  1.64044E-19  5.85810E-03  0.00000E+00  2.3E-06
  2.800E+00  5.96931E-04  1.42067E-19  5.07332E-03  0.00000E+00  2.3E-06
  2.900E+00  6.40321E-04  1.23643E-19  4.41538E-03  0.00000E+00  1.8E-06
  3.000E+00  6.85233E-04  1.08105E-19  3.86051E-03  0.00000E+00  8.3E-07
  3.100E+00  7.31665E-04  9.49288E-20  3.38997E-03  0.00000E+00  2.6E-07
  3.200E+00  7.79618E-04  8.36969E-20  2.98887E-03  0.00000E+00  1.1E-06
  3.300E+00  8.29092E-04  7.40756E-20  2.64529E-03  0.00000E+00  1.5E-06
  3.400E+00  8.80086E-04  6.57961E-20  2.34962E-03  0.00000E+00  1.4E-06
  3.500E+00  9.32601E-04  5.86402E-20  2.09408E-03  0.00000E+00  1.1E-06
  3.600E+00  9.86636E-04  5.24303E-20  1.87232E-03  0.00000E+00  4.5E-07
  3.700E+00  1.04219E-03  4.70205E-20  1.67913E-03  0.00000E+00  2.5E-07
  3.800E+00  1.09927E-03  4.22902E-20  1.51021E-03  0.00000E+00  7.5E-07
  3.900E+00  1.15786E-03  3.81398E-20  1.36200E-03  0.00000E+00  9.9E-07
  4.000E+00  1.21797E-03  3.44859E-20  1.23151E-03  0.00000E+00  9.4E-07
  4.100E+00  1.27961E-03  3.12590E-20  1.11628E-03  0.00000E+00  6.7E-07
  4.200E+00  1.34276E-03  2.84008E-20  1.01421E-03  0.00000E+00  2.5E-07
  4.300E+00  1.40743E-03  2.58619E-20  9.23544E-04  0.00000E+00  2.4E-07
  4.400E+00  1.47362E-03  2.36004E-20  8.42785E-04  0.00000E+00  5.6E-07
  4.500E+00  1.54133E-03  2.15807E-20  7.70662E-04  0.00000E+00  7.0E-07
  4.600E+00  1.61056E-03  1.97726E-20  7.06091E-04  0.00000E+00  6.5E-07
  4.700E+00  1.68131E-03  1.81499E-20  6.48143E-04  0.00000E+00  4.4E-07
  4.800E+00  1.75357E-03  1.66903E-20  5.96021E-04  0.00000E+00  1.4E-07
  4.900E+00  1.82735E-03  1.53746E-20  5.49036E-04  0.00000E+00  2.1E-07
  5.000E+00  1.90265E-03  1.41860E-20  5.06591E-04  0.00000E+00  4.4E-07
  5.100E+00  1.97947E-03  1.31101E-20  4.68172E-04  0.00000E+00  5.2E-07
  5.200E+00  2.05780E-03  1.21344E-20  4.33327E-04  0.00000E+00  4.7E-07
  5.300E+00  2.13765E-03  1.12478E-20  4.01666E-04  0.00000E+00  3.0E-07
  5.400E+00  2.21902E-03  1.04407E-20  3.72846E-04  0.00000E+00  1.0E-07
  5.500E+00  2.30190E-03  9.70484E-21  3.46566E-04  0.00000E+00  1.9E-07
  5.600E+00  2.38630E-03  9.03267E-21  3.22563E-04  0.00000E+00  3.5E-07
  5.700E+00  2.47222E-03  8.41773E-21  3.00603E-04  0.00000E+00  4.0E-07
  5.800E+00  2.55965E-03  7.85428E-21  2.80481E-04  0.00000E+00  3.5E-07
  5.900E+00  2.64859E-03  7.33722E-21  2.62017E-04  0.00000E+00  2.1E-07
  6.000E+00  2.73905E-03  6.86205E-21  2.45048E-04  0.00000E+00  1.0E-07
  6.100E+00  2.83103E-03  6.42476E-21  2.29432E-04  0.00000E+00  1.7E-07
  6.200E+00  2.92452E-03  6.02177E-21  2.15041E-04  0.00000E+00  2.8E-07
  6.300E+00  3.01952E-03  5.64992E-21  2.01762E-04  0.00000E+00  3.1E-07
  6.400E+00  3.11604E-03  5.30635E-21  1.89493E-04  0.00000E+00  2.6E-07
  6.500E+00  3.21407E-03  4.98853E-21  1.78144E-04  0.00000E+00  1.5E-07
  6.600E+00  3.31362E-03  4.69418E-21  1.67632E-04  0.00000E+00  1.0E-07
  6.700E+00  3.41468E-03  4.42123E-21  1.57885E-04  0.00000E+00  1.5E-07
  6.800E+00  3.51725E-03  4.16786E-21  1.48837E-04  0.00000E+00  2.3E-07
  6.900E+00  3.62133E-03  3.93239E-21  1.40428E-04  0.00000E+00  2.5E-07
  7.000E+00  3.72692E-03  3.71334E-21  1.32606E-04  0.00000E+00  2.0E-07
  7.100E+00  3.83403E-03  3.50934E-21  1.25321E-04  0.00000E+00  1.1E-07
  7.200E+00  3.94265E-03  3.31918E-21  1.18530E-04  0.00000E+00  1.0E-07
  7.300E+00  4.05278E-03  3.14173E-21  1.12193E-04  0.00000E+00  1.4E-07
  7.400E+00  4.16442E-03  2.97600E-21  1.06275E-04  0.00000E+00  1.9E-07
  7.500E+00  4.27757E-03  2.82107E-21  1.00742E-04  0.00000E+00  2.0E-07
  7.600E+00  4.39223E-03  2.67610E-21  9.55653E-05  0.00000E+00  1.6E-07
  7.700E+00  4.50840E-03  2.54033E-21  9.07170E-05  0.00000E+00  1.0E-07
  7.800E+00  4.62608E-03  2.41308E-21  8.61726E-05  0.00000E+00  1.0E-07
  7.900E+00  4.74527E-03  2.29370E-21  8.19095E-05  0.00000E+00  1.2E-07
  8.000E+00  4.86597E-03  2.18162E-21  7.79072E-05  0.00000E+00  1.6E-07
  8.100E+00  4.98817E-03  2.07632E-21  7.41466E-05  0.00000E+00  1.6E-07
  8.200E+00  5.11188E-03  1.97729E-21  7.06105E-05  0.00000E+00  1.2E-07
  8.300E+00  5.23711E-03  1.88411E-21  6.72829E-05  0.00000E+00  1.0E-07
  8.400E+00  5.36383E-03  1.79636E-21  6.41492E-05  0.00000E+00  1.0E-07
  8.500E+00  5.49207E-03  1.71367E-21  6.11962E-05  0.00000E+00  1.1E-07
  8.600E+00  5.62181E-03  1.63568E-21  5.84113E-05  0.00000E+00  1.4E-07
  8.700E+00  5.75306E-03  1.56209E-21  5.57832E-05  0.00000E+00  1.3E-07
  8.800E+00  5.88581E-03  1.49259E-21  5.33015E-05  0.00000E+00  1.0E-07
  8.900E+00  6.02007E-03  1.42693E-21  5.09564E-05  0.00000E+00  1.0E-07
  9.000E+00  6.15583E-03  1.36483E-21  4.87391E-05  0.00000E+00  1.0E-07
  9.100E+00  6.29310E-03  1.30609E-21  4.66412E-05  0.00000E+00  1.0E-07
  9.200E+00  6.43187E-03  1.25046E-21  4.46548E-05  0.00000E+00  1.2E-07
  9.300E+00  6.57214E-03  1.19777E-21  4.27732E-05  0.00000E+00  1.1E-07
  9.400E+00  6.71392E-03  1.14783E-21  4.09897E-05  0.00000E+00  1.0E-07
  9.500E+00  6.85720E-03  1.10047E-21  3.92984E-05  0.00000E+00  1.0E-07
  9.600E+00  7.00198E-03  1.05553E-21  3.76935E-05  0.00000E+00  1.0E-07
  9.700E+00  7.14827E-03  1.01286E-21  3.61698E-05  0.00000E+00  1.0E-07
  9.800E+00  7.29605E-03  9.72329E-22  3.47225E-05  0.00000E+00  1.0E-07
  9.900E+00  7.44534E-03  9.33809E-22  3.33469E-05  0.00000E+00  1.0E-07
  1.000E+01  7.59612E-03  8.97181E-22  3.20389E-05  0.00000E+00  1.0E-07
  1.025E+01  7.97965E-03  8.13177E-22  2.90391E-05  0.00000E+00  1.0E-07
  1.050E+01  8.37255E-03  7.38792E-22  2.63827E-05  0.00000E+00  1.0E-07
  1.075E+01  8.77480E-03  6.72731E-22  2.40237E-05  0.00000E+00  1.0E-07
  1.100E+01  9.18641E-03  6.13902E-22  2.19228E-05  0.00000E+00  1.0E-07
  1.125E+01  9.60736E-03  5.61373E-22  2.00470E-05  0.00000E+00  1.0E-07
  1.150E+01  1.00376E-02  5.14351E-22  1.83678E-05  0.00000E+00  1.0E-07
  1.175E+01  1.04773E-02  4.72157E-22  1.68610E-05  0.00000E+00  1.0E-07
  1.200E+01  1.09262E-02  4.34208E-22  1.55059E-05  0.00000E+00  1.0E-07
  1.225E+01  1.13844E-02  4.00002E-22  1.42843E-05  0.00000E+00  1.0E-07
  1.250E+01  1.18520E-02  3.69102E-22  1.31809E-05  0.00000E+00  1.0E-07
  1.275E+01  1.23288E-02  3.41133E-22  1.21821E-05  0.00000E+00  1.0E-07
  1.300E+01  1.28150E-02  3.15768E-22  1.12763E-05  0.00000E+00  1.0E-07
  1.325E+01  1.33104E-02  2.92719E-22  1.04532E-05  0.00000E+00  1.0E-07
  1.350E+01  1.38150E-02  2.71739E-22  9.70396E-06  0.00000E+00  1.0E-07
  1.375E+01  1.43290E-02  2.52607E-22  9.02075E-06  0.00000E+00  1.0E-07
  1.400E+01  1.48521E-02  2.35131E-22  8.39670E-06  0.00000E+00  1.0E-07
  1.425E+01  1.53845E-02  2.19143E-22  7.82575E-06  0.00000E+00  1.0E-07
  1.450E+01  1.59262E-02  2.04493E-22  7.30258E-06  0.00000E+00  1.0E-07
  1.475E+01  1.64770E-02  1.91048E-22  6.82245E-06  0.00000E+00  1.0E-07
  1.500E+01  1.70371E-02  1.78691E-22  6.38119E-06  0.00000E+00  1.0E-07
  1.525E+01  1.76063E-02  1.67319E-22  5.97507E-06  0.00000E+00  1.0E-07
