 #
 # Subroutine ELSEPA. Elastic scattering of electrons and positrons
 #                    by neutral atoms and positive ions
 #
 # Projectile: electron
 # Kinetic energy = 3.70000E+06 eV = 1.35973E+05 a.u.
 #
 # WARNING: High-energy factorization with free-atom DF screening.
 #          Absorption, polarization and exchange corrections are
 #          switched off.
 #          Phase shifts are calculated for the bare nucleus.
 #          Scattering amplitudes are not evaluated.
 #
 # Element: At,  Z =  85,  atomic weight = 2.09987E+02 g/mol
 #
 # Nuclear model: Fermi distribution
 #                Average radius = 6.35987E-13 cm
 #                Skin thickness = 5.46000E-14 cm
 #
 # Number of electrons = 85
 #
 # Total elastic cross section = 9.53135E-18 cm**2 = 3.40371E-01 a0**2
 # 1st transport cross section = 6.77309E-22 cm**2 = 2.41871E-05 a0**2
 # 2nd transport cross section = 1.78651E-21 cm**2 = 6.37976E-05 a0**2
 #
 #
 # Differential cross section:                       MU=(1-COS(THETA))/2
 #
 #  THETA        MU          DCS          DCS        Sherman      error
 #  (deg)                 (cm**2/sr)   (a0**2/sr)    function
 #----------------------------------------------------------------------
  0.000E+00  0.00000E+00  1.15105E-12  4.11047E+04  0.00000E+00  1.0E-05
  1.000E-04  7.61557E-13  1.15105E-12  4.11046E+04  0.00000E+00  1.0E-05
  1.250E-04  1.18994E-12  1.15104E-12  4.11045E+04  0.00000E+00  1.0E-05
  1.500E-04  1.71346E-12  1.15104E-12  4.11044E+04  0.00000E+00  1.0E-05
  1.750E-04  2.33225E-12  1.15104E-12  4.11043E+04  0.00000E+00  1.0E-05
  2.000E-04  3.04617E-12  1.15103E-12  4.11042E+04  0.00000E+00  1.0E-05
  2.250E-04  3.85530E-12  1.15103E-12  4.11040E+04  0.00000E+00  1.0E-05
  2.500E-04  4.75964E-12  1.15103E-12  4.11039E+04  0.00000E+00  1.0E-05
  2.750E-04  5.75917E-12  1.15102E-12  4.11037E+04  0.00000E+00  1.0E-05
  3.000E-04  6.85391E-12  1.15102E-12  4.11035E+04  0.00000E+00  1.0E-05
  3.250E-04  8.04379E-12  1.15101E-12  4.11033E+04  0.00000E+00  1.0E-05
  3.500E-04  9.32893E-12  1.15100E-12  4.11031E+04  0.00000E+00  1.0E-05
  3.750E-04  1.07092E-11  1.15100E-12  4.11028E+04  0.00000E+00  1.0E-05
  4.000E-04  1.21847E-11  1.15099E-12  4.11026E+04  0.00000E+00  1.0E-05
  4.250E-04  1.37554E-11  1.15098E-12  4.11023E+04  0.00000E+00  1.0E-05
  4.500E-04  1.54213E-11  1.15097E-12  4.11020E+04  0.00000E+00  1.0E-05
  4.750E-04  1.71823E-11  1.15096E-12  4.11017E+04  0.00000E+00  1.0E-05
  5.000E-04  1.90386E-11  1.15096E-12  4.11014E+04  0.00000E+00  1.0E-05
  5.250E-04  2.09900E-11  1.15095E-12  4.11010E+04  0.00000E+00  1.0E-05
  5.500E-04  2.30367E-11  1.15094E-12  4.11006E+04  0.00000E+00  1.0E-05
  5.750E-04  2.51785E-11  1.15092E-12  4.11003E+04  0.00000E+00  1.0E-05
  6.000E-04  2.74156E-11  1.15091E-12  4.10999E+04  0.00000E+00  1.0E-05
  6.250E-04  2.97478E-11  1.15090E-12  4.10995E+04  0.00000E+00  1.0E-05
  6.500E-04  3.21752E-11  1.15089E-12  4.10990E+04  0.00000E+00  1.0E-05
  6.750E-04  3.46979E-11  1.15088E-12  4.10986E+04  0.00000E+00  1.0E-05
  7.000E-04  3.73157E-11  1.15086E-12  4.10981E+04  0.00000E+00  1.0E-05
  7.250E-04  4.00286E-11  1.15085E-12  4.10976E+04  0.00000E+00  1.0E-05
  7.500E-04  4.28368E-11  1.15084E-12  4.10971E+04  0.00000E+00  1.0E-05
  7.750E-04  4.57402E-11  1.15082E-12  4.10966E+04  0.00000E+00  1.0E-05
  8.000E-04  4.87388E-11  1.15081E-12  4.10961E+04  0.00000E+00  1.0E-05
  8.250E-04  5.18325E-11  1.15079E-12  4.10956E+04  0.00000E+00  1.0E-05
  8.500E-04  5.50215E-11  1.15078E-12  4.10950E+04  0.00000E+00  1.0E-05
  8.750E-04  5.83057E-11  1.15076E-12  4.10944E+04  0.00000E+00  1.0E-05
  9.000E-04  6.16850E-11  1.15074E-12  4.10938E+04  0.00000E+00  1.0E-05
  9.250E-04  6.51595E-11  1.15073E-12  4.10932E+04  0.00000E+00  1.0E-05
  9.500E-04  6.87293E-11  1.15071E-12  4.10926E+04  0.00000E+00  1.0E-05
  9.750E-04  7.23943E-11  1.15069E-12  4.10919E+04  0.00000E+00  1.0E-05
  1.000E-03  7.61544E-11  1.15067E-12  4.10913E+04  0.00000E+00  1.0E-05
  1.250E-03  1.18991E-10  1.15046E-12  4.10837E+04  0.00000E+00  1.0E-05
  1.500E-03  1.71347E-10  1.15020E-12  4.10744E+04  0.00000E+00  1.0E-05
  1.750E-03  2.33223E-10  1.14989E-12  4.10635E+04  0.00000E+00  1.0E-05
  2.000E-03  3.04617E-10  1.14954E-12  4.10508E+04  0.00000E+00  1.0E-05
  2.250E-03  3.85531E-10  1.14914E-12  4.10365E+04  0.00000E+00  1.0E-05
  2.500E-03  4.75965E-10  1.14869E-12  4.10205E+04  0.00000E+00  1.0E-05
  2.750E-03  5.75917E-10  1.14820E-12  4.10029E+04  0.00000E+00  1.0E-05
  3.000E-03  6.85389E-10  1.14766E-12  4.09835E+04  0.00000E+00  1.0E-05
  3.250E-03  8.04380E-10  1.14707E-12  4.09625E+04  0.00000E+00  1.0E-05
  3.500E-03  9.32891E-10  1.14643E-12  4.09399E+04  0.00000E+00  1.0E-05
  3.750E-03  1.07092E-09  1.14575E-12  4.09156E+04  0.00000E+00  1.0E-05
  4.000E-03  1.21847E-09  1.14503E-12  4.08896E+04  0.00000E+00  1.0E-05
  4.250E-03  1.37554E-09  1.14425E-12  4.08620E+04  0.00000E+00  1.0E-05
  4.500E-03  1.54213E-09  1.14343E-12  4.08327E+04  0.00000E+00  1.0E-05
  4.750E-03  1.71823E-09  1.14257E-12  4.08018E+04  0.00000E+00  1.0E-05
  5.000E-03  1.90386E-09  1.14166E-12  4.07693E+04  0.00000E+00  1.0E-05
  5.250E-03  2.09900E-09  1.14070E-12  4.07352E+04  0.00000E+00  1.0E-05
  5.500E-03  2.30367E-09  1.13970E-12  4.06994E+04  0.00000E+00  1.0E-05
  5.750E-03  2.51785E-09  1.13865E-12  4.06620E+04  0.00000E+00  1.0E-05
  6.000E-03  2.74156E-09  1.13756E-12  4.06230E+04  0.00000E+00  1.0E-05
  6.250E-03  2.97478E-09  1.13642E-12  4.05824E+04  0.00000E+00  1.0E-05
  6.500E-03  3.21752E-09  1.13524E-12  4.05403E+04  0.00000E+00  1.0E-05
  6.750E-03  3.46978E-09  1.13402E-12  4.04965E+04  0.00000E+00  1.0E-05
  7.000E-03  3.73156E-09  1.13275E-12  4.04512E+04  0.00000E+00  1.0E-05
  7.250E-03  4.00286E-09  1.13144E-12  4.04043E+04  0.00000E+00  1.0E-05
  7.500E-03  4.28368E-09  1.13008E-12  4.03558E+04  0.00000E+00  1.0E-05
  7.750E-03  4.57402E-09  1.12868E-12  4.03058E+04  0.00000E+00  1.0E-05
  8.000E-03  4.87388E-09  1.12724E-12  4.02543E+04  0.00000E+00  1.0E-05
  8.250E-03  5.18326E-09  1.12575E-12  4.02013E+04  0.00000E+00  1.0E-05
  8.500E-03  5.50215E-09  1.12422E-12  4.01467E+04  0.00000E+00  1.0E-05
  8.750E-03  5.83057E-09  1.12265E-12  4.00906E+04  0.00000E+00  1.0E-05
  9.000E-03  6.16850E-09  1.12104E-12  4.00330E+04  0.00000E+00  1.0E-05
  9.250E-03  6.51596E-09  1.11938E-12  3.99739E+04  0.00000E+00  1.0E-05
  9.500E-03  6.87293E-09  1.11769E-12  3.99134E+04  0.00000E+00  1.0E-05
  9.750E-03  7.23942E-09  1.11595E-12  3.98514E+04  0.00000E+00  1.0E-05
  1.000E-02  7.61544E-09  1.11417E-12  3.97879E+04  0.00000E+00  1.0E-05
  1.250E-02  1.18991E-08  1.09424E-12  3.90760E+04  0.00000E+00  1.0E-05
  1.500E-02  1.71347E-08  1.07049E-12  3.82277E+04  0.00000E+00  1.0E-05
  1.750E-02  2.33223E-08  1.04358E-12  3.72668E+04  0.00000E+00  1.0E-05
  2.000E-02  3.04617E-08  1.01395E-12  3.62089E+04  0.00000E+00  1.0E-05
  2.250E-02  3.85531E-08  9.81825E-13  3.50616E+04  0.00000E+00  1.0E-05
  2.500E-02  4.75965E-08  9.47694E-13  3.38428E+04  0.00000E+00  1.0E-05
  2.750E-02  5.75917E-08  9.12234E-13  3.25765E+04  0.00000E+00  1.0E-05
  3.000E-02  6.85389E-08  8.75918E-13  3.12796E+04  0.00000E+00  1.0E-05
  3.250E-02  8.04380E-08  8.38922E-13  2.99585E+04  0.00000E+00  1.0E-05
  3.500E-02  9.32891E-08  8.01496E-13  2.86219E+04  0.00000E+00  1.0E-05
  3.750E-02  1.07092E-07  7.64340E-13  2.72951E+04  0.00000E+00  1.0E-05
  4.000E-02  1.21847E-07  7.27750E-13  2.59884E+04  0.00000E+00  1.0E-05
  4.250E-02  1.37554E-07  6.91844E-13  2.47062E+04  0.00000E+00  1.0E-05
  4.500E-02  1.54213E-07  6.56522E-13  2.34448E+04  0.00000E+00  1.0E-05
  4.750E-02  1.71823E-07  6.22398E-13  2.22262E+04  0.00000E+00  1.0E-05
  5.000E-02  1.90386E-07  5.89583E-13  2.10544E+04  0.00000E+00  1.0E-05
  5.250E-02  2.09900E-07  5.58144E-13  1.99317E+04  0.00000E+00  1.0E-05
  5.500E-02  2.30367E-07  5.27742E-13  1.88460E+04  0.00000E+00  1.0E-05
  5.750E-02  2.51785E-07  4.98853E-13  1.78144E+04  0.00000E+00  1.0E-05
  6.000E-02  2.74156E-07  4.71471E-13  1.68365E+04  0.00000E+00  1.0E-05
  6.250E-02  2.97478E-07  4.45570E-13  1.59116E+04  0.00000E+00  1.0E-05
  6.500E-02  3.21752E-07  4.20890E-13  1.50303E+04  0.00000E+00  1.0E-05
  6.750E-02  3.46978E-07  3.97611E-13  1.41989E+04  0.00000E+00  1.0E-05
  7.000E-02  3.73156E-07  3.75723E-13  1.34173E+04  0.00000E+00  1.0E-05
  7.250E-02  4.00286E-07  3.55162E-13  1.26831E+04  0.00000E+00  1.0E-05
  7.500E-02  4.28368E-07  3.35750E-13  1.19898E+04  0.00000E+00  1.0E-05
  7.750E-02  4.57402E-07  3.17494E-13  1.13379E+04  0.00000E+00  1.0E-05
  8.000E-02  4.87388E-07  3.00395E-13  1.07273E+04  0.00000E+00  1.0E-05
  8.250E-02  5.18325E-07  2.84382E-13  1.01555E+04  0.00000E+00  1.0E-05
  8.500E-02  5.50215E-07  2.69336E-13  9.61817E+03  0.00000E+00  1.0E-05
  8.750E-02  5.83057E-07  2.55191E-13  9.11304E+03  0.00000E+00  1.0E-05
  9.000E-02  6.16850E-07  2.41956E-13  8.64040E+03  0.00000E+00  1.0E-05
  9.250E-02  6.51596E-07  2.29567E-13  8.19797E+03  0.00000E+00  1.0E-05
  9.500E-02  6.87293E-07  2.17947E-13  7.78301E+03  0.00000E+00  1.0E-05
  9.750E-02  7.23942E-07  2.07007E-13  7.39234E+03  0.00000E+00  1.0E-05
  1.000E-01  7.61543E-07  1.96761E-13  7.02646E+03  0.00000E+00  1.0E-05
  1.250E-01  1.18991E-06  1.22719E-13  4.38236E+03  0.00000E+00  1.0E-05
  1.500E-01  1.71347E-06  8.01317E-14  2.86155E+03  0.00000E+00  1.0E-05
  1.750E-01  2.33223E-06  5.53495E-14  1.97657E+03  0.00000E+00  1.0E-05
  2.000E-01  3.04617E-06  3.95846E-14  1.41359E+03  0.00000E+00  1.0E-05
  2.250E-01  3.85531E-06  2.88716E-14  1.03102E+03  0.00000E+00  1.0E-05
  2.500E-01  4.75964E-06  2.15227E-14  7.68589E+02  0.00000E+00  1.0E-05
  2.750E-01  5.75916E-06  1.64090E-14  5.85976E+02  0.00000E+00  1.0E-05
  3.000E-01  6.85388E-06  1.27513E-14  4.55357E+02  0.00000E+00  1.0E-05
  3.250E-01  8.04378E-06  1.00597E-14  3.59239E+02  0.00000E+00  1.0E-05
  3.500E-01  9.32888E-06  8.04443E-15  2.87272E+02  0.00000E+00  1.0E-05
  3.750E-01  1.07092E-05  6.52344E-15  2.32956E+02  0.00000E+00  1.0E-05
  4.000E-01  1.21846E-05  5.35357E-15  1.91180E+02  0.00000E+00  1.0E-05
  4.250E-01  1.37553E-05  4.43639E-15  1.58427E+02  0.00000E+00  1.0E-05
  4.500E-01  1.54212E-05  3.70261E-15  1.32223E+02  0.00000E+00  1.0E-05
  4.750E-01  1.71822E-05  3.11556E-15  1.11259E+02  0.00000E+00  1.0E-05
  5.000E-01  1.90385E-05  2.63871E-15  9.42299E+01  0.00000E+00  1.0E-05
  5.250E-01  2.09899E-05  2.25220E-15  8.04277E+01  0.00000E+00  1.0E-05
  5.500E-01  2.30365E-05  1.92987E-15  6.89169E+01  0.00000E+00  1.0E-05
  5.750E-01  2.51783E-05  1.66242E-15  5.93662E+01  0.00000E+00  1.0E-05
  6.000E-01  2.74153E-05  1.43904E-15  5.13890E+01  0.00000E+00  1.0E-05
  6.250E-01  2.97475E-05  1.25151E-15  4.46924E+01  0.00000E+00  1.0E-05
  6.500E-01  3.21749E-05  1.09312E-15  3.90360E+01  0.00000E+00  1.0E-05
  6.750E-01  3.46974E-05  9.58326E-16  3.42224E+01  0.00000E+00  1.0E-05
  7.000E-01  3.73152E-05  8.43736E-16  3.01304E+01  0.00000E+00  1.0E-05
  7.250E-01  4.00281E-05  7.46062E-16  2.66424E+01  0.00000E+00  1.0E-05
  7.500E-01  4.28362E-05  6.62232E-16  2.36487E+01  0.00000E+00  1.0E-05
  7.750E-01  4.57395E-05  5.90021E-16  2.10700E+01  0.00000E+00  1.0E-05
  8.000E-01  4.87380E-05  5.27569E-16  1.88398E+01  0.00000E+00  1.0E-05
  8.250E-01  5.18317E-05  4.73294E-16  1.69016E+01  0.00000E+00  1.0E-05
  8.500E-01  5.50205E-05  4.25856E-16  1.52076E+01  0.00000E+00  1.0E-05
  8.750E-01  5.83045E-05  3.84219E-16  1.37207E+01  0.00000E+00  1.0E-05
  9.000E-01  6.16838E-05  3.47619E-16  1.24137E+01  0.00000E+00  1.0E-05
  9.250E-01  6.51582E-05  3.15337E-16  1.12609E+01  0.00000E+00  1.0E-05
  9.500E-01  6.87277E-05  2.86751E-16  1.02401E+01  0.00000E+00  1.0E-05
  9.750E-01  7.23925E-05  2.61330E-16  9.33226E+00  0.00000E+00  1.0E-05
  1.000E+00  7.61524E-05  2.38705E-16  8.52431E+00  0.00000E+00  9.1E-06
  1.100E+00  9.21439E-05  1.69594E-16  6.05629E+00  0.00000E+00  6.8E-06
  1.200E+00  1.09658E-04  1.23914E-16  4.42503E+00  0.00000E+00  3.7E-06
  1.300E+00  1.28695E-04  9.26556E-17  3.30879E+00  0.00000E+00  7.7E-07
  1.400E+00  1.49255E-04  7.06277E-17  2.52216E+00  0.00000E+00  1.4E-06
  1.500E+00  1.71338E-04  5.48375E-17  1.95828E+00  0.00000E+00  2.6E-06
  1.600E+00  1.94942E-04  4.32488E-17  1.54444E+00  0.00000E+00  2.8E-06
  1.700E+00  2.20070E-04  3.45726E-17  1.23461E+00  0.00000E+00  2.3E-06
  1.800E+00  2.46720E-04  2.79593E-17  9.98446E-01  0.00000E+00  1.3E-06
  1.900E+00  2.74892E-04  2.28639E-17  8.16484E-01  0.00000E+00  2.2E-07
  2.000E+00  3.04586E-04  1.88827E-17  6.74315E-01  0.00000E+00  6.6E-07
  2.100E+00  3.35803E-04  1.57341E-17  5.61875E-01  0.00000E+00  1.2E-06
  2.200E+00  3.68542E-04  1.32090E-17  4.71701E-01  0.00000E+00  1.3E-06
  2.300E+00  4.02802E-04  1.11722E-17  3.98966E-01  0.00000E+00  1.0E-06
  2.400E+00  4.38585E-04  9.51399E-18  3.39751E-01  0.00000E+00  5.9E-07
  2.500E+00  4.75889E-04  8.15250E-18  2.91131E-01  0.00000E+00  1.0E-07
  2.600E+00  5.14715E-04  7.02441E-18  2.50846E-01  0.00000E+00  3.7E-07
  2.700E+00  5.55063E-04  6.08490E-18  2.17296E-01  0.00000E+00  6.4E-07
  2.800E+00  5.96931E-04  5.29775E-18  1.89186E-01  0.00000E+00  7.0E-07
  2.900E+00  6.40321E-04  4.63415E-18  1.65489E-01  0.00000E+00  5.7E-07
  3.000E+00  6.85233E-04  4.07099E-18  1.45378E-01  0.00000E+00  3.1E-07
  3.100E+00  7.31665E-04  3.59094E-18  1.28235E-01  0.00000E+00  1.0E-07
  3.200E+00  7.79618E-04  3.17989E-18  1.13556E-01  0.00000E+00  2.4E-07
  3.300E+00  8.29092E-04  2.82628E-18  1.00928E-01  0.00000E+00  4.0E-07
  3.400E+00  8.80086E-04  2.52053E-18  9.00097E-02  0.00000E+00  4.3E-07
  3.500E+00  9.32601E-04  2.25510E-18  8.05309E-02  0.00000E+00  3.5E-07
  3.600E+00  9.86636E-04  2.02389E-18  7.22745E-02  0.00000E+00  1.8E-07
  3.700E+00  1.04219E-03  1.82172E-18  6.50549E-02  0.00000E+00  1.0E-07
  3.800E+00  1.09927E-03  1.64428E-18  5.87183E-02  0.00000E+00  1.7E-07
  3.900E+00  1.15786E-03  1.48793E-18  5.31351E-02  0.00000E+00  2.7E-07
  4.000E+00  1.21797E-03  1.34984E-18  4.82037E-02  0.00000E+00  2.8E-07
  4.100E+00  1.27961E-03  1.22749E-18  4.38344E-02  0.00000E+00  2.3E-07
  4.200E+00  1.34276E-03  1.11876E-18  3.99516E-02  0.00000E+00  1.1E-07
  4.300E+00  1.40743E-03  1.02179E-18  3.64888E-02  0.00000E+00  1.0E-07
  4.400E+00  1.47362E-03  9.35159E-19  3.33951E-02  0.00000E+00  1.3E-07
  4.500E+00  1.54133E-03  8.57564E-19  3.06242E-02  0.00000E+00  1.9E-07
  4.600E+00  1.61056E-03  7.87887E-19  2.81360E-02  0.00000E+00  2.0E-07
  4.700E+00  1.68131E-03  7.25139E-19  2.58952E-02  0.00000E+00  1.6E-07
  4.800E+00  1.75357E-03  6.68539E-19  2.38740E-02  0.00000E+00  1.0E-07
  4.900E+00  1.82735E-03  6.17378E-19  2.20470E-02  0.00000E+00  1.0E-07
  5.000E+00  1.90265E-03  5.71038E-19  2.03921E-02  0.00000E+00  1.0E-07
  5.100E+00  1.97947E-03  5.28966E-19  1.88897E-02  0.00000E+00  1.4E-07
  5.200E+00  2.05780E-03  4.90706E-19  1.75234E-02  0.00000E+00  1.5E-07
  5.300E+00  2.13765E-03  4.55856E-19  1.62789E-02  0.00000E+00  1.1E-07
  5.400E+00  2.21902E-03  4.24058E-19  1.51434E-02  0.00000E+00  1.0E-07
  5.500E+00  2.30190E-03  3.94988E-19  1.41053E-02  0.00000E+00  1.0E-07
  5.600E+00  2.38630E-03  3.68368E-19  1.31547E-02  0.00000E+00  1.0E-07
  5.700E+00  2.47222E-03  3.43963E-19  1.22831E-02  0.00000E+00  1.1E-07
  5.800E+00  2.55965E-03  3.21553E-19  1.14829E-02  0.00000E+00  1.1E-07
  5.900E+00  2.64859E-03  3.00943E-19  1.07469E-02  0.00000E+00  1.0E-07
  6.000E+00  2.73905E-03  2.81958E-19  1.00689E-02  0.00000E+00  1.0E-07
  6.100E+00  2.83103E-03  2.64454E-19  9.44381E-03  0.00000E+00  1.0E-07
  6.200E+00  2.92452E-03  2.48292E-19  8.86668E-03  0.00000E+00  1.0E-07
  6.300E+00  3.01952E-03  2.33351E-19  8.33312E-03  0.00000E+00  1.0E-07
  6.400E+00  3.11604E-03  2.19517E-19  7.83909E-03  0.00000E+00  1.0E-07
  6.500E+00  3.21407E-03  2.06698E-19  7.38131E-03  0.00000E+00  1.0E-07
  6.600E+00  3.31362E-03  1.94805E-19  6.95661E-03  0.00000E+00  1.0E-07
  6.700E+00  3.41468E-03  1.83760E-19  6.56217E-03  0.00000E+00  1.0E-07
  6.800E+00  3.51725E-03  1.73486E-19  6.19531E-03  0.00000E+00  1.0E-07
  6.900E+00  3.62133E-03  1.63925E-19  5.85386E-03  0.00000E+00  1.0E-07
  7.000E+00  3.72692E-03  1.55016E-19  5.53574E-03  0.00000E+00  1.0E-07
  7.100E+00  3.83403E-03  1.46708E-19  5.23905E-03  0.00000E+00  1.0E-07
  7.200E+00  3.94265E-03  1.38951E-19  4.96203E-03  0.00000E+00  1.0E-07
  7.300E+00  4.05278E-03  1.31702E-19  4.70316E-03  0.00000E+00  1.0E-07
  7.400E+00  4.16442E-03  1.24922E-19  4.46106E-03  0.00000E+00  1.0E-07
  7.500E+00  4.27757E-03  1.18576E-19  4.23444E-03  0.00000E+00  1.0E-07
  7.600E+00  4.39223E-03  1.12630E-19  4.02209E-03  0.00000E+00  1.0E-07
  7.700E+00  4.50840E-03  1.07053E-19  3.82295E-03  0.00000E+00  1.0E-07
  7.800E+00  4.62608E-03  1.01820E-19  3.63606E-03  0.00000E+00  1.0E-07
  7.900E+00  4.74527E-03  9.69052E-20  3.46055E-03  0.00000E+00  1.0E-07
  8.000E+00  4.86597E-03  9.22850E-20  3.29556E-03  0.00000E+00  1.0E-07
  8.100E+00  4.98817E-03  8.79383E-20  3.14033E-03  0.00000E+00  1.0E-07
  8.200E+00  5.11188E-03  8.38465E-20  2.99421E-03  0.00000E+00  1.0E-07
  8.300E+00  5.23711E-03  7.99920E-20  2.85656E-03  0.00000E+00  1.0E-07
  8.400E+00  5.36383E-03  7.63581E-20  2.72680E-03  0.00000E+00  1.0E-07
  8.500E+00  5.49207E-03  7.29293E-20  2.60435E-03  0.00000E+00  1.0E-07
  8.600E+00  5.62181E-03  6.96926E-20  2.48877E-03  0.00000E+00  1.0E-07
  8.700E+00  5.75306E-03  6.66351E-20  2.37958E-03  0.00000E+00  1.0E-07
  8.800E+00  5.88581E-03  6.37449E-20  2.27637E-03  0.00000E+00  1.0E-07
  8.900E+00  6.02007E-03  6.10108E-20  2.17873E-03  0.00000E+00  1.0E-07
  9.000E+00  6.15583E-03  5.84231E-20  2.08633E-03  0.00000E+00  1.0E-07
  9.100E+00  6.29310E-03  5.59725E-20  1.99881E-03  0.00000E+00  1.0E-07
  9.200E+00  6.43187E-03  5.36503E-20  1.91589E-03  0.00000E+00  1.0E-07
  9.300E+00  6.57214E-03  5.14483E-20  1.83725E-03  0.00000E+00  1.0E-07
  9.400E+00  6.71392E-03  4.93592E-20  1.76265E-03  0.00000E+00  1.0E-07
  9.500E+00  6.85720E-03  4.73763E-20  1.69184E-03  0.00000E+00  1.0E-07
  9.600E+00  7.00198E-03  4.54930E-20  1.62459E-03  0.00000E+00  1.0E-07
  9.700E+00  7.14827E-03  4.37033E-20  1.56067E-03  0.00000E+00  1.0E-07
  9.800E+00  7.29605E-03  4.20017E-20  1.49991E-03  0.00000E+00  1.0E-07
  9.900E+00  7.44534E-03  4.03830E-20  1.44210E-03  0.00000E+00  1.0E-07
  1.000E+01  7.59612E-03  3.88426E-20  1.38709E-03  0.00000E+00  1.0E-07
  1.025E+01  7.97965E-03  3.53042E-20  1.26074E-03  0.00000E+00  1.0E-07
  1.050E+01  8.37255E-03  3.21643E-20  1.14861E-03  0.00000E+00  1.0E-07
  1.075E+01  8.77480E-03  2.93699E-20  1.04882E-03  0.00000E+00  1.0E-07
  1.100E+01  9.18641E-03  2.68763E-20  9.59770E-04  0.00000E+00  1.0E-07
  1.125E+01  9.60736E-03  2.46452E-20  8.80098E-04  0.00000E+00  1.0E-07
  1.150E+01  1.00376E-02  2.26441E-20  8.08637E-04  0.00000E+00  1.0E-07
  1.175E+01  1.04773E-02  2.08450E-20  7.44389E-04  0.00000E+00  1.0E-07
  1.200E+01  1.09262E-02  1.92237E-20  6.86491E-04  0.00000E+00  1.0E-07
  1.225E+01  1.13844E-02  1.77595E-20  6.34203E-04  0.00000E+00  1.0E-07
  1.250E+01  1.18520E-02  1.64343E-20  5.86880E-04  0.00000E+00  1.0E-07
  1.275E+01  1.23288E-02  1.52326E-20  5.43965E-04  0.00000E+00  1.0E-07
  1.300E+01  1.28150E-02  1.41406E-20  5.04970E-04  0.00000E+00  1.0E-07
  1.325E+01  1.33104E-02  1.31464E-20  4.69468E-04  0.00000E+00  1.0E-07
  1.350E+01  1.38150E-02  1.22399E-20  4.37095E-04  0.00000E+00  1.0E-07
  1.375E+01  1.43290E-02  1.14117E-20  4.07518E-04  0.00000E+00  1.0E-07
  1.400E+01  1.48521E-02  1.06537E-20  3.80451E-04  0.00000E+00  1.0E-07
  1.425E+01  1.53845E-02  9.95899E-21  3.55642E-04  0.00000E+00  1.0E-07
  1.450E+01  1.59262E-02  9.32124E-21  3.32868E-04  0.00000E+00  1.0E-07
  1.475E+01  1.64770E-02  8.73486E-21  3.11927E-04  0.00000E+00  1.0E-07
  1.500E+01  1.70371E-02  8.19490E-21  2.92645E-04  0.00000E+00  1.0E-07
  1.525E+01  1.76063E-02  7.69705E-21  2.74867E-04  0.00000E+00  1.0E-07
