 #
 # Subroutine ELSEPA. Elastic scattering of electrons and positrons
 #                    by neutral atoms and positive ions
 #
 # Projectile: electron
 # Kinetic energy = 3.70000E+06 eV = 1.35973E+05 a.u.
 #
 # WARNING: High-energy factorization with free-atom DF screening.
 #          Absorption, polarization and exchange corrections are
 #          switched off.
 #          Phase shifts are calculated for the bare nucleus.
 #          Scattering amplitudes are not evaluated.
 #
 # Element: Au,  Z =  79,  atomic weight = 1.96967E+02 g/mol
 #
 # Nuclear model: Fermi distribution
 #                Average radius = 6.22560E-13 cm
 #                Skin thickness = 5.46000E-14 cm
 #
 # Number of electrons = 79
 #
 # Total elastic cross section = 7.80330E-18 cm**2 = 2.78661E-01 a0**2
 # 1st transport cross section = 5.78396E-22 cm**2 = 2.06549E-05 a0**2
 # 2nd transport cross section = 1.54278E-21 cm**2 = 5.50936E-05 a0**2
 #
 #
 # Differential cross section:                       MU=(1-COS(THETA))/2
 #
 #  THETA        MU          DCS          DCS        Sherman      error
 #  (deg)                 (cm**2/sr)   (a0**2/sr)    function
 #----------------------------------------------------------------------
  0.000E+00  0.00000E+00  7.00936E-13  2.50309E+04  0.00000E+00  1.0E-05
  1.000E-04  7.61557E-13  7.00934E-13  2.50308E+04  0.00000E+00  1.0E-05
  1.250E-04  1.18994E-12  7.00933E-13  2.50308E+04  0.00000E+00  1.0E-05
  1.500E-04  1.71346E-12  7.00932E-13  2.50307E+04  0.00000E+00  1.0E-05
  1.750E-04  2.33225E-12  7.00930E-13  2.50307E+04  0.00000E+00  1.0E-05
  2.000E-04  3.04617E-12  7.00929E-13  2.50306E+04  0.00000E+00  1.0E-05
  2.250E-04  3.85530E-12  7.00927E-13  2.50305E+04  0.00000E+00  1.0E-05
  2.500E-04  4.75964E-12  7.00924E-13  2.50305E+04  0.00000E+00  1.0E-05
  2.750E-04  5.75917E-12  7.00922E-13  2.50304E+04  0.00000E+00  1.0E-05
  3.000E-04  6.85391E-12  7.00919E-13  2.50303E+04  0.00000E+00  1.0E-05
  3.250E-04  8.04379E-12  7.00916E-13  2.50302E+04  0.00000E+00  1.0E-05
  3.500E-04  9.32893E-12  7.00913E-13  2.50301E+04  0.00000E+00  1.0E-05
  3.750E-04  1.07092E-11  7.00910E-13  2.50299E+04  0.00000E+00  1.0E-05
  4.000E-04  1.21847E-11  7.00906E-13  2.50298E+04  0.00000E+00  1.0E-05
  4.250E-04  1.37554E-11  7.00902E-13  2.50297E+04  0.00000E+00  1.0E-05
  4.500E-04  1.54213E-11  7.00898E-13  2.50295E+04  0.00000E+00  1.0E-05
  4.750E-04  1.71823E-11  7.00894E-13  2.50294E+04  0.00000E+00  1.0E-05
  5.000E-04  1.90386E-11  7.00889E-13  2.50292E+04  0.00000E+00  1.0E-05
  5.250E-04  2.09900E-11  7.00885E-13  2.50290E+04  0.00000E+00  1.0E-05
  5.500E-04  2.30367E-11  7.00880E-13  2.50289E+04  0.00000E+00  1.0E-05
  5.750E-04  2.51785E-11  7.00874E-13  2.50287E+04  0.00000E+00  1.0E-05
  6.000E-04  2.74156E-11  7.00869E-13  2.50285E+04  0.00000E+00  1.0E-05
  6.250E-04  2.97478E-11  7.00863E-13  2.50283E+04  0.00000E+00  1.0E-05
  6.500E-04  3.21752E-11  7.00857E-13  2.50281E+04  0.00000E+00  1.0E-05
  6.750E-04  3.46979E-11  7.00851E-13  2.50278E+04  0.00000E+00  1.0E-05
  7.000E-04  3.73157E-11  7.00844E-13  2.50276E+04  0.00000E+00  1.0E-05
  7.250E-04  4.00286E-11  7.00838E-13  2.50274E+04  0.00000E+00  1.0E-05
  7.500E-04  4.28368E-11  7.00831E-13  2.50271E+04  0.00000E+00  1.0E-05
  7.750E-04  4.57402E-11  7.00823E-13  2.50269E+04  0.00000E+00  1.0E-05
  8.000E-04  4.87388E-11  7.00816E-13  2.50266E+04  0.00000E+00  1.0E-05
  8.250E-04  5.18325E-11  7.00808E-13  2.50263E+04  0.00000E+00  1.0E-05
  8.500E-04  5.50215E-11  7.00800E-13  2.50260E+04  0.00000E+00  1.0E-05
  8.750E-04  5.83057E-11  7.00792E-13  2.50257E+04  0.00000E+00  1.0E-05
  9.000E-04  6.16850E-11  7.00784E-13  2.50254E+04  0.00000E+00  1.0E-05
  9.250E-04  6.51595E-11  7.00775E-13  2.50251E+04  0.00000E+00  1.0E-05
  9.500E-04  6.87293E-11  7.00767E-13  2.50248E+04  0.00000E+00  1.0E-05
  9.750E-04  7.23943E-11  7.00757E-13  2.50245E+04  0.00000E+00  1.0E-05
  1.000E-03  7.61544E-11  7.00748E-13  2.50242E+04  0.00000E+00  1.0E-05
  1.250E-03  1.18991E-10  7.00642E-13  2.50204E+04  0.00000E+00  1.0E-05
  1.500E-03  1.71347E-10  7.00513E-13  2.50158E+04  0.00000E+00  1.0E-05
  1.750E-03  2.33223E-10  7.00360E-13  2.50103E+04  0.00000E+00  1.0E-05
  2.000E-03  3.04617E-10  7.00183E-13  2.50040E+04  0.00000E+00  1.0E-05
  2.250E-03  3.85531E-10  6.99983E-13  2.49968E+04  0.00000E+00  1.0E-05
  2.500E-03  4.75965E-10  6.99759E-13  2.49889E+04  0.00000E+00  1.0E-05
  2.750E-03  5.75917E-10  6.99512E-13  2.49800E+04  0.00000E+00  1.0E-05
  3.000E-03  6.85389E-10  6.99242E-13  2.49704E+04  0.00000E+00  1.0E-05
  3.250E-03  8.04380E-10  6.98949E-13  2.49599E+04  0.00000E+00  1.0E-05
  3.500E-03  9.32891E-10  6.98632E-13  2.49486E+04  0.00000E+00  1.0E-05
  3.750E-03  1.07092E-09  6.98292E-13  2.49364E+04  0.00000E+00  1.0E-05
  4.000E-03  1.21847E-09  6.97929E-13  2.49235E+04  0.00000E+00  1.0E-05
  4.250E-03  1.37554E-09  6.97542E-13  2.49097E+04  0.00000E+00  1.0E-05
  4.500E-03  1.54213E-09  6.97133E-13  2.48951E+04  0.00000E+00  1.0E-05
  4.750E-03  1.71823E-09  6.96701E-13  2.48796E+04  0.00000E+00  1.0E-05
  5.000E-03  1.90386E-09  6.96246E-13  2.48634E+04  0.00000E+00  1.0E-05
  5.250E-03  2.09900E-09  6.95768E-13  2.48463E+04  0.00000E+00  1.0E-05
  5.500E-03  2.30367E-09  6.95268E-13  2.48285E+04  0.00000E+00  1.0E-05
  5.750E-03  2.51785E-09  6.94745E-13  2.48098E+04  0.00000E+00  1.0E-05
  6.000E-03  2.74156E-09  6.94200E-13  2.47903E+04  0.00000E+00  1.0E-05
  6.250E-03  2.97478E-09  6.93632E-13  2.47700E+04  0.00000E+00  1.0E-05
  6.500E-03  3.21752E-09  6.93042E-13  2.47490E+04  0.00000E+00  1.0E-05
  6.750E-03  3.46978E-09  6.92430E-13  2.47271E+04  0.00000E+00  1.0E-05
  7.000E-03  3.73156E-09  6.91795E-13  2.47045E+04  0.00000E+00  1.0E-05
  7.250E-03  4.00286E-09  6.91139E-13  2.46810E+04  0.00000E+00  1.0E-05
  7.500E-03  4.28368E-09  6.90461E-13  2.46568E+04  0.00000E+00  1.0E-05
  7.750E-03  4.57402E-09  6.89762E-13  2.46318E+04  0.00000E+00  1.0E-05
  8.000E-03  4.87388E-09  6.89040E-13  2.46061E+04  0.00000E+00  1.0E-05
  8.250E-03  5.18326E-09  6.88298E-13  2.45796E+04  0.00000E+00  1.0E-05
  8.500E-03  5.50215E-09  6.87534E-13  2.45523E+04  0.00000E+00  1.0E-05
  8.750E-03  5.83057E-09  6.86749E-13  2.45242E+04  0.00000E+00  1.0E-05
  9.000E-03  6.16850E-09  6.85943E-13  2.44955E+04  0.00000E+00  1.0E-05
  9.250E-03  6.51596E-09  6.85116E-13  2.44659E+04  0.00000E+00  1.0E-05
  9.500E-03  6.87293E-09  6.84268E-13  2.44357E+04  0.00000E+00  1.0E-05
  9.750E-03  7.23942E-09  6.83400E-13  2.44047E+04  0.00000E+00  1.0E-05
  1.000E-02  7.61544E-09  6.82511E-13  2.43729E+04  0.00000E+00  1.0E-05
  1.250E-02  1.18991E-08  6.72539E-13  2.40168E+04  0.00000E+00  1.0E-05
  1.500E-02  1.71347E-08  6.60645E-13  2.35921E+04  0.00000E+00  1.0E-05
  1.750E-02  2.33223E-08  6.47150E-13  2.31101E+04  0.00000E+00  1.0E-05
  2.000E-02  3.04617E-08  6.32264E-13  2.25786E+04  0.00000E+00  1.0E-05
  2.250E-02  3.85531E-08  6.16085E-13  2.20008E+04  0.00000E+00  1.0E-05
  2.500E-02  4.75965E-08  5.98846E-13  2.13852E+04  0.00000E+00  1.0E-05
  2.750E-02  5.75917E-08  5.80869E-13  2.07432E+04  0.00000E+00  1.0E-05
  3.000E-02  6.85389E-08  5.62380E-13  2.00830E+04  0.00000E+00  1.0E-05
  3.250E-02  8.04380E-08  5.43450E-13  1.94069E+04  0.00000E+00  1.0E-05
  3.500E-02  9.32891E-08  5.24179E-13  1.87188E+04  0.00000E+00  1.0E-05
  3.750E-02  1.07092E-07  5.04918E-13  1.80309E+04  0.00000E+00  1.0E-05
  4.000E-02  1.21847E-07  4.85808E-13  1.73485E+04  0.00000E+00  1.0E-05
  4.250E-02  1.37554E-07  4.66898E-13  1.66732E+04  0.00000E+00  1.0E-05
  4.500E-02  1.54213E-07  4.48099E-13  1.60019E+04  0.00000E+00  1.0E-05
  4.750E-02  1.71823E-07  4.29751E-13  1.53467E+04  0.00000E+00  1.0E-05
  5.000E-02  1.90386E-07  4.11917E-13  1.47098E+04  0.00000E+00  1.0E-05
  5.250E-02  2.09900E-07  3.94636E-13  1.40927E+04  0.00000E+00  1.0E-05
  5.500E-02  2.30367E-07  3.77673E-13  1.34869E+04  0.00000E+00  1.0E-05
  5.750E-02  2.51785E-07  3.61341E-13  1.29037E+04  0.00000E+00  1.0E-05
  6.000E-02  2.74156E-07  3.45650E-13  1.23434E+04  0.00000E+00  1.0E-05
  6.250E-02  2.97478E-07  3.30601E-13  1.18060E+04  0.00000E+00  1.0E-05
  6.500E-02  3.21752E-07  3.16007E-13  1.12848E+04  0.00000E+00  1.0E-05
  6.750E-02  3.46978E-07  3.02022E-13  1.07854E+04  0.00000E+00  1.0E-05
  7.000E-02  3.73156E-07  2.88673E-13  1.03087E+04  0.00000E+00  1.0E-05
  7.250E-02  4.00286E-07  2.75939E-13  9.85395E+03  0.00000E+00  1.0E-05
  7.500E-02  4.28368E-07  2.63693E-13  9.41665E+03  0.00000E+00  1.0E-05
  7.750E-02  4.57402E-07  2.51973E-13  8.99813E+03  0.00000E+00  1.0E-05
  8.000E-02  4.87388E-07  2.40823E-13  8.59995E+03  0.00000E+00  1.0E-05
  8.250E-02  5.18325E-07  2.30217E-13  8.22118E+03  0.00000E+00  1.0E-05
  8.500E-02  5.50215E-07  2.20074E-13  7.85897E+03  0.00000E+00  1.0E-05
  8.750E-02  5.83057E-07  2.10363E-13  7.51218E+03  0.00000E+00  1.0E-05
  9.000E-02  6.16850E-07  2.01138E-13  7.18275E+03  0.00000E+00  1.0E-05
  9.250E-02  6.51596E-07  1.92373E-13  6.86976E+03  0.00000E+00  1.0E-05
  9.500E-02  6.87293E-07  1.84022E-13  6.57156E+03  0.00000E+00  1.0E-05
  9.750E-02  7.23942E-07  1.76019E-13  6.28574E+03  0.00000E+00  1.0E-05
  1.000E-01  7.61543E-07  1.68419E-13  6.01435E+03  0.00000E+00  1.0E-05
  1.250E-01  1.18991E-06  1.09806E-13  3.92125E+03  0.00000E+00  1.0E-05
  1.500E-01  1.71347E-06  7.25689E-14  2.59148E+03  0.00000E+00  1.0E-05
  1.750E-01  2.33223E-06  5.03169E-14  1.79685E+03  0.00000E+00  1.0E-05
  2.000E-01  3.04617E-06  3.59341E-14  1.28323E+03  0.00000E+00  1.0E-05
  2.250E-01  3.85531E-06  2.62018E-14  9.35682E+02  0.00000E+00  1.0E-05
  2.500E-01  4.75964E-06  1.95797E-14  6.99204E+02  0.00000E+00  1.0E-05
  2.750E-01  5.75916E-06  1.49852E-14  5.35131E+02  0.00000E+00  1.0E-05
  3.000E-01  6.85388E-06  1.16982E-14  4.17751E+02  0.00000E+00  1.0E-05
  3.250E-01  8.04378E-06  9.26731E-15  3.30941E+02  0.00000E+00  1.0E-05
  3.500E-01  9.32888E-06  7.42960E-15  2.65316E+02  0.00000E+00  1.0E-05
  3.750E-01  1.07092E-05  6.03127E-15  2.15381E+02  0.00000E+00  1.0E-05
  4.000E-01  1.21846E-05  4.94771E-15  1.76686E+02  0.00000E+00  1.0E-05
  4.250E-01  1.37553E-05  4.09242E-15  1.46143E+02  0.00000E+00  1.0E-05
  4.500E-01  1.54212E-05  3.40489E-15  1.21591E+02  0.00000E+00  1.0E-05
  4.750E-01  1.71822E-05  2.85461E-15  1.01940E+02  0.00000E+00  1.0E-05
  5.000E-01  1.90385E-05  2.40827E-15  8.60008E+01  0.00000E+00  1.0E-05
  5.250E-01  2.09899E-05  2.04703E-15  7.31009E+01  0.00000E+00  1.0E-05
  5.500E-01  2.30365E-05  1.74738E-15  6.24002E+01  0.00000E+00  1.0E-05
  5.750E-01  2.51783E-05  1.50007E-15  5.35685E+01  0.00000E+00  1.0E-05
  6.000E-01  2.74153E-05  1.29459E-15  4.62306E+01  0.00000E+00  1.0E-05
  6.250E-01  2.97475E-05  1.12299E-15  4.01027E+01  0.00000E+00  1.0E-05
  6.500E-01  3.21749E-05  9.78900E-16  3.49571E+01  0.00000E+00  1.0E-05
  6.750E-01  3.46974E-05  8.56893E-16  3.06002E+01  0.00000E+00  1.0E-05
  7.000E-01  3.73152E-05  7.53564E-16  2.69103E+01  0.00000E+00  1.0E-05
  7.250E-01  4.00281E-05  6.65761E-16  2.37747E+01  0.00000E+00  1.0E-05
  7.500E-01  4.28362E-05  5.90631E-16  2.10918E+01  0.00000E+00  1.0E-05
  7.750E-01  4.57395E-05  5.26044E-16  1.87854E+01  0.00000E+00  1.0E-05
  8.000E-01  4.87380E-05  4.70260E-16  1.67933E+01  0.00000E+00  1.0E-05
  8.250E-01  5.18317E-05  4.21831E-16  1.50638E+01  0.00000E+00  1.0E-05
  8.500E-01  5.50205E-05  3.79537E-16  1.35535E+01  0.00000E+00  1.0E-05
  8.750E-01  5.83045E-05  3.42430E-16  1.22284E+01  0.00000E+00  1.0E-05
  9.000E-01  6.16838E-05  3.09818E-16  1.10638E+01  0.00000E+00  1.0E-05
  9.250E-01  6.51582E-05  2.81055E-16  1.00367E+01  0.00000E+00  1.0E-05
  9.500E-01  6.87277E-05  2.55585E-16  9.12709E+00  0.00000E+00  1.0E-05
  9.750E-01  7.23925E-05  2.32929E-16  8.31805E+00  0.00000E+00  1.0E-05
  1.000E+00  7.61524E-05  2.12763E-16  7.59791E+00  0.00000E+00  1.0E-05
  1.100E+00  9.21439E-05  1.51121E-16  5.39662E+00  0.00000E+00  7.6E-06
  1.200E+00  1.09658E-04  1.10352E-16  3.94073E+00  0.00000E+00  4.1E-06
  1.300E+00  1.28695E-04  8.24483E-17  2.94428E+00  0.00000E+00  8.3E-07
  1.400E+00  1.49255E-04  6.27843E-17  2.24207E+00  0.00000E+00  1.6E-06
  1.500E+00  1.71338E-04  4.86951E-17  1.73893E+00  0.00000E+00  2.9E-06
  1.600E+00  1.94942E-04  3.83585E-17  1.36981E+00  0.00000E+00  3.1E-06
  1.700E+00  2.20070E-04  3.06235E-17  1.09359E+00  0.00000E+00  2.5E-06
  1.800E+00  2.46720E-04  2.47332E-17  8.83237E-01  0.00000E+00  1.4E-06
  1.900E+00  2.74892E-04  2.01988E-17  7.21312E-01  0.00000E+00  2.3E-07
  2.000E+00  3.04586E-04  1.66602E-17  5.94947E-01  0.00000E+00  7.4E-07
  2.100E+00  3.35803E-04  1.38651E-17  4.95132E-01  0.00000E+00  1.3E-06
  2.200E+00  3.68542E-04  1.16275E-17  4.15224E-01  0.00000E+00  1.4E-06
  2.300E+00  4.02802E-04  9.82505E-18  3.50859E-01  0.00000E+00  1.2E-06
  2.400E+00  4.38585E-04  8.35969E-18  2.98530E-01  0.00000E+00  6.4E-07
  2.500E+00  4.75889E-04  7.15822E-18  2.55625E-01  0.00000E+00  1.0E-07
  2.600E+00  5.14715E-04  6.16415E-18  2.20126E-01  0.00000E+00  4.2E-07
  2.700E+00  5.55063E-04  5.33721E-18  1.90595E-01  0.00000E+00  7.2E-07
  2.800E+00  5.96931E-04  4.64498E-18  1.65875E-01  0.00000E+00  7.8E-07
  2.900E+00  6.40321E-04  4.06187E-18  1.45052E-01  0.00000E+00  6.3E-07
  3.000E+00  6.85233E-04  3.56740E-18  1.27394E-01  0.00000E+00  3.4E-07
  3.100E+00  7.31665E-04  3.14612E-18  1.12350E-01  0.00000E+00  1.0E-07
  3.200E+00  7.79618E-04  2.78554E-18  9.94733E-02  0.00000E+00  2.7E-07
  3.300E+00  8.29092E-04  2.47542E-18  8.83990E-02  0.00000E+00  4.5E-07
  3.400E+00  8.80086E-04  2.20735E-18  7.88261E-02  0.00000E+00  4.8E-07
  3.500E+00  9.32601E-04  1.97466E-18  7.05166E-02  0.00000E+00  3.8E-07
  3.600E+00  9.86636E-04  1.77200E-18  6.32793E-02  0.00000E+00  2.0E-07
  3.700E+00  1.04219E-03  1.59480E-18  5.69513E-02  0.00000E+00  1.0E-07
  3.800E+00  1.09927E-03  1.43927E-18  5.13974E-02  0.00000E+00  1.9E-07
  3.900E+00  1.15786E-03  1.30224E-18  4.65040E-02  0.00000E+00  3.0E-07
  4.000E+00  1.21797E-03  1.18121E-18  4.21819E-02  0.00000E+00  3.2E-07
  4.100E+00  1.27961E-03  1.07398E-18  3.83527E-02  0.00000E+00  2.5E-07
  4.200E+00  1.34276E-03  9.78696E-19  3.49499E-02  0.00000E+00  1.2E-07
  4.300E+00  1.40743E-03  8.93721E-19  3.19153E-02  0.00000E+00  1.0E-07
  4.400E+00  1.47362E-03  8.17807E-19  2.92044E-02  0.00000E+00  1.4E-07
  4.500E+00  1.54133E-03  7.49818E-19  2.67765E-02  0.00000E+00  2.1E-07
  4.600E+00  1.61056E-03  6.88773E-19  2.45965E-02  0.00000E+00  2.2E-07
  4.700E+00  1.68131E-03  6.33805E-19  2.26336E-02  0.00000E+00  1.7E-07
  4.800E+00  1.75357E-03  5.84229E-19  2.08632E-02  0.00000E+00  1.0E-07
  4.900E+00  1.82735E-03  5.39424E-19  1.92632E-02  0.00000E+00  1.0E-07
  5.000E+00  1.90265E-03  4.98847E-19  1.78142E-02  0.00000E+00  1.1E-07
  5.100E+00  1.97947E-03  4.62014E-19  1.64988E-02  0.00000E+00  1.6E-07
  5.200E+00  2.05780E-03  4.28525E-19  1.53029E-02  0.00000E+00  1.6E-07
  5.300E+00  2.13765E-03  3.98027E-19  1.42138E-02  0.00000E+00  1.2E-07
  5.400E+00  2.21902E-03  3.70205E-19  1.32202E-02  0.00000E+00  1.0E-07
  5.500E+00  2.30190E-03  3.44775E-19  1.23121E-02  0.00000E+00  1.0E-07
  5.600E+00  2.38630E-03  3.21493E-19  1.14807E-02  0.00000E+00  1.0E-07
  5.700E+00  2.47222E-03  3.00153E-19  1.07187E-02  0.00000E+00  1.2E-07
  5.800E+00  2.55965E-03  2.80562E-19  1.00190E-02  0.00000E+00  1.2E-07
  5.900E+00  2.64859E-03  2.62548E-19  9.37574E-03  0.00000E+00  1.0E-07
  6.000E+00  2.73905E-03  2.45958E-19  8.78332E-03  0.00000E+00  1.0E-07
  6.100E+00  2.83103E-03  2.30665E-19  8.23718E-03  0.00000E+00  1.0E-07
  6.200E+00  2.92452E-03  2.16548E-19  7.73305E-03  0.00000E+00  1.0E-07
  6.300E+00  3.01952E-03  2.03499E-19  7.26708E-03  0.00000E+00  1.0E-07
  6.400E+00  3.11604E-03  1.91420E-19  6.83573E-03  0.00000E+00  1.0E-07
  6.500E+00  3.21407E-03  1.80229E-19  6.43609E-03  0.00000E+00  1.0E-07
  6.600E+00  3.31362E-03  1.69848E-19  6.06540E-03  0.00000E+00  1.0E-07
  6.700E+00  3.41468E-03  1.60209E-19  5.72117E-03  0.00000E+00  1.0E-07
  6.800E+00  3.51725E-03  1.51246E-19  5.40108E-03  0.00000E+00  1.0E-07
  6.900E+00  3.62133E-03  1.42904E-19  5.10320E-03  0.00000E+00  1.0E-07
  7.000E+00  3.72692E-03  1.35134E-19  4.82571E-03  0.00000E+00  1.0E-07
  7.100E+00  3.83403E-03  1.27888E-19  4.56695E-03  0.00000E+00  1.0E-07
  7.200E+00  3.94265E-03  1.21123E-19  4.32538E-03  0.00000E+00  1.0E-07
  7.300E+00  4.05278E-03  1.14802E-19  4.09967E-03  0.00000E+00  1.0E-07
  7.400E+00  4.16442E-03  1.08892E-19  3.88861E-03  0.00000E+00  1.0E-07
  7.500E+00  4.27757E-03  1.03360E-19  3.69105E-03  0.00000E+00  1.0E-07
  7.600E+00  4.39223E-03  9.81769E-20  3.50596E-03  0.00000E+00  1.0E-07
  7.700E+00  4.50840E-03  9.33168E-20  3.33240E-03  0.00000E+00  1.0E-07
  7.800E+00  4.62608E-03  8.87562E-20  3.16954E-03  0.00000E+00  1.0E-07
  7.900E+00  4.74527E-03  8.44732E-20  3.01659E-03  0.00000E+00  1.0E-07
  8.000E+00  4.86597E-03  8.04475E-20  2.87283E-03  0.00000E+00  1.0E-07
  8.100E+00  4.98817E-03  7.66604E-20  2.73759E-03  0.00000E+00  1.0E-07
  8.200E+00  5.11188E-03  7.30956E-20  2.61029E-03  0.00000E+00  1.0E-07
  8.300E+00  5.23711E-03  6.97375E-20  2.49037E-03  0.00000E+00  1.0E-07
  8.400E+00  5.36383E-03  6.65718E-20  2.37732E-03  0.00000E+00  1.0E-07
  8.500E+00  5.49207E-03  6.35851E-20  2.27066E-03  0.00000E+00  1.0E-07
  8.600E+00  5.62181E-03  6.07657E-20  2.16998E-03  0.00000E+00  1.0E-07
  8.700E+00  5.75306E-03  5.81024E-20  2.07487E-03  0.00000E+00  1.0E-07
  8.800E+00  5.88581E-03  5.55850E-20  1.98497E-03  0.00000E+00  1.0E-07
  8.900E+00  6.02007E-03  5.32035E-20  1.89993E-03  0.00000E+00  1.0E-07
  9.000E+00  6.15583E-03  5.09496E-20  1.81944E-03  0.00000E+00  1.0E-07
  9.100E+00  6.29310E-03  4.88151E-20  1.74322E-03  0.00000E+00  1.0E-07
  9.200E+00  6.43187E-03  4.67925E-20  1.67099E-03  0.00000E+00  1.0E-07
  9.300E+00  6.57214E-03  4.48746E-20  1.60250E-03  0.00000E+00  1.0E-07
  9.400E+00  6.71392E-03  4.30550E-20  1.53752E-03  0.00000E+00  1.0E-07
  9.500E+00  6.85720E-03  4.13279E-20  1.47585E-03  0.00000E+00  1.0E-07
  9.600E+00  7.00198E-03  3.96875E-20  1.41727E-03  0.00000E+00  1.0E-07
  9.700E+00  7.14827E-03  3.81286E-20  1.36160E-03  0.00000E+00  1.0E-07
  9.800E+00  7.29605E-03  3.66464E-20  1.30867E-03  0.00000E+00  1.0E-07
  9.900E+00  7.44534E-03  3.52364E-20  1.25832E-03  0.00000E+00  1.0E-07
  1.000E+01  7.59612E-03  3.38945E-20  1.21040E-03  0.00000E+00  1.0E-07
  1.025E+01  7.97965E-03  3.08121E-20  1.10032E-03  0.00000E+00  1.0E-07
  1.050E+01  8.37255E-03  2.80765E-20  1.00263E-03  0.00000E+00  1.0E-07
  1.075E+01  8.77480E-03  2.56417E-20  9.15681E-04  0.00000E+00  1.0E-07
  1.100E+01  9.18641E-03  2.34687E-20  8.38081E-04  0.00000E+00  1.0E-07
  1.125E+01  9.60736E-03  2.15242E-20  7.68644E-04  0.00000E+00  1.0E-07
  1.150E+01  1.00376E-02  1.97799E-20  7.06354E-04  0.00000E+00  1.0E-07
  1.175E+01  1.04773E-02  1.82114E-20  6.50341E-04  0.00000E+00  1.0E-07
  1.200E+01  1.09262E-02  1.67977E-20  5.99858E-04  0.00000E+00  1.0E-07
  1.225E+01  1.13844E-02  1.55208E-20  5.54258E-04  0.00000E+00  1.0E-07
  1.250E+01  1.18520E-02  1.43650E-20  5.12982E-04  0.00000E+00  1.0E-07
  1.275E+01  1.23288E-02  1.33166E-20  4.75543E-04  0.00000E+00  1.0E-07
  1.300E+01  1.28150E-02  1.23638E-20  4.41518E-04  0.00000E+00  1.0E-07
  1.325E+01  1.33104E-02  1.14962E-20  4.10536E-04  0.00000E+00  1.0E-07
  1.350E+01  1.38150E-02  1.07049E-20  3.82279E-04  0.00000E+00  1.0E-07
  1.375E+01  1.43290E-02  9.98182E-21  3.56457E-04  0.00000E+00  1.0E-07
  1.400E+01  1.48521E-02  9.31999E-21  3.32823E-04  0.00000E+00  1.0E-07
  1.425E+01  1.53845E-02  8.71326E-21  3.11156E-04  0.00000E+00  1.0E-07
  1.450E+01  1.59262E-02  8.15618E-21  2.91262E-04  0.00000E+00  1.0E-07
  1.475E+01  1.64770E-02  7.64387E-21  2.72968E-04  0.00000E+00  1.0E-07
  1.500E+01  1.70371E-02  7.17204E-21  2.56118E-04  0.00000E+00  1.0E-07
  1.525E+01  1.76063E-02  6.73692E-21  2.40580E-04  0.00000E+00  1.0E-07
