 #
 # Subroutine ELSEPA. Elastic scattering of electrons and positrons
 #                    by neutral atoms and positive ions
 #
 # Projectile: electron
 # Kinetic energy = 3.70000E+06 eV = 1.35973E+05 a.u.
 #
 # WARNING: High-energy factorization with free-atom DF screening.
 #          Absorption, polarization and exchange corrections are
 #          switched off.
 #          Phase shifts are calculated for the bare nucleus.
 #          Scattering amplitudes are not evaluated.
 #
 # Element: Be,  Z =   4,  atomic weight = 9.01220E+00 g/mol
 #
 # Nuclear model: Fermi distribution
 #                Average radius = 2.22669E-13 cm
 #                Skin thickness = 5.46000E-14 cm
 #
 # Number of electrons =  4
 #
 # Total elastic cross section = 1.72869E-19 cm**2 = 6.17327E-03 a0**2
 # 1st transport cross section = 1.46703E-24 cm**2 = 5.23884E-08 a0**2
 # 2nd transport cross section = 4.21126E-24 cm**2 = 1.50387E-07 a0**2
 #
 #
 # Differential cross section:                       MU=(1-COS(THETA))/2
 #
 #  THETA        MU          DCS          DCS        Sherman      error
 #  (deg)                 (cm**2/sr)   (a0**2/sr)    function
 #----------------------------------------------------------------------
  0.000E+00  0.00000E+00  6.33173E-14  2.26110E+03  0.00000E+00  1.0E-05
  1.000E-04  7.61557E-13  6.33169E-14  2.26109E+03  0.00000E+00  1.0E-05
  1.250E-04  1.18994E-12  6.33167E-14  2.26108E+03  0.00000E+00  1.0E-05
  1.500E-04  1.71346E-12  6.33164E-14  2.26107E+03  0.00000E+00  1.0E-05
  1.750E-04  2.33225E-12  6.33161E-14  2.26106E+03  0.00000E+00  1.0E-05
  2.000E-04  3.04617E-12  6.33158E-14  2.26105E+03  0.00000E+00  1.0E-05
  2.250E-04  3.85530E-12  6.33154E-14  2.26103E+03  0.00000E+00  1.0E-05
  2.500E-04  4.75964E-12  6.33149E-14  2.26102E+03  0.00000E+00  1.0E-05
  2.750E-04  5.75917E-12  6.33144E-14  2.26100E+03  0.00000E+00  1.0E-05
  3.000E-04  6.85391E-12  6.33139E-14  2.26098E+03  0.00000E+00  1.0E-05
  3.250E-04  8.04379E-12  6.33133E-14  2.26096E+03  0.00000E+00  1.0E-05
  3.500E-04  9.32893E-12  6.33126E-14  2.26094E+03  0.00000E+00  1.0E-05
  3.750E-04  1.07092E-11  6.33120E-14  2.26091E+03  0.00000E+00  1.0E-05
  4.000E-04  1.21847E-11  6.33112E-14  2.26088E+03  0.00000E+00  1.0E-05
  4.250E-04  1.37554E-11  6.33104E-14  2.26086E+03  0.00000E+00  1.0E-05
  4.500E-04  1.54213E-11  6.33096E-14  2.26083E+03  0.00000E+00  1.0E-05
  4.750E-04  1.71823E-11  6.33087E-14  2.26080E+03  0.00000E+00  1.0E-05
  5.000E-04  1.90386E-11  6.33078E-14  2.26076E+03  0.00000E+00  1.0E-05
  5.250E-04  2.09900E-11  6.33068E-14  2.26073E+03  0.00000E+00  1.0E-05
  5.500E-04  2.30367E-11  6.33058E-14  2.26069E+03  0.00000E+00  1.0E-05
  5.750E-04  2.51785E-11  6.33047E-14  2.26065E+03  0.00000E+00  1.0E-05
  6.000E-04  2.74156E-11  6.33036E-14  2.26061E+03  0.00000E+00  1.0E-05
  6.250E-04  2.97478E-11  6.33025E-14  2.26057E+03  0.00000E+00  1.0E-05
  6.500E-04  3.21752E-11  6.33013E-14  2.26053E+03  0.00000E+00  1.0E-05
  6.750E-04  3.46979E-11  6.33000E-14  2.26048E+03  0.00000E+00  1.0E-05
  7.000E-04  3.73157E-11  6.32987E-14  2.26044E+03  0.00000E+00  1.0E-05
  7.250E-04  4.00286E-11  6.32974E-14  2.26039E+03  0.00000E+00  1.0E-05
  7.500E-04  4.28368E-11  6.32960E-14  2.26034E+03  0.00000E+00  1.0E-05
  7.750E-04  4.57402E-11  6.32945E-14  2.26029E+03  0.00000E+00  1.0E-05
  8.000E-04  4.87388E-11  6.32930E-14  2.26023E+03  0.00000E+00  1.0E-05
  8.250E-04  5.18325E-11  6.32915E-14  2.26018E+03  0.00000E+00  1.0E-05
  8.500E-04  5.50215E-11  6.32899E-14  2.26012E+03  0.00000E+00  1.0E-05
  8.750E-04  5.83057E-11  6.32883E-14  2.26006E+03  0.00000E+00  1.0E-05
  9.000E-04  6.16850E-11  6.32866E-14  2.26000E+03  0.00000E+00  1.0E-05
  9.250E-04  6.51595E-11  6.32848E-14  2.25994E+03  0.00000E+00  1.0E-05
  9.500E-04  6.87293E-11  6.32831E-14  2.25988E+03  0.00000E+00  1.0E-05
  9.750E-04  7.23943E-11  6.32812E-14  2.25981E+03  0.00000E+00  1.0E-05
  1.000E-03  7.61544E-11  6.32794E-14  2.25975E+03  0.00000E+00  1.0E-05
  1.250E-03  1.18991E-10  6.32581E-14  2.25899E+03  0.00000E+00  1.0E-05
  1.500E-03  1.71347E-10  6.32321E-14  2.25806E+03  0.00000E+00  1.0E-05
  1.750E-03  2.33223E-10  6.32013E-14  2.25696E+03  0.00000E+00  1.0E-05
  2.000E-03  3.04617E-10  6.31659E-14  2.25570E+03  0.00000E+00  1.0E-05
  2.250E-03  3.85531E-10  6.31258E-14  2.25426E+03  0.00000E+00  1.0E-05
  2.500E-03  4.75965E-10  6.30810E-14  2.25266E+03  0.00000E+00  1.0E-05
  2.750E-03  5.75917E-10  6.30316E-14  2.25090E+03  0.00000E+00  1.0E-05
  3.000E-03  6.85389E-10  6.29775E-14  2.24897E+03  0.00000E+00  1.0E-05
  3.250E-03  8.04380E-10  6.29187E-14  2.24687E+03  0.00000E+00  1.0E-05
  3.500E-03  9.32891E-10  6.28554E-14  2.24461E+03  0.00000E+00  1.0E-05
  3.750E-03  1.07092E-09  6.27874E-14  2.24218E+03  0.00000E+00  1.0E-05
  4.000E-03  1.21847E-09  6.27149E-14  2.23959E+03  0.00000E+00  1.0E-05
  4.250E-03  1.37554E-09  6.26378E-14  2.23684E+03  0.00000E+00  1.0E-05
  4.500E-03  1.54213E-09  6.25562E-14  2.23392E+03  0.00000E+00  1.0E-05
  4.750E-03  1.71823E-09  6.24700E-14  2.23085E+03  0.00000E+00  1.0E-05
  5.000E-03  1.90386E-09  6.23795E-14  2.22761E+03  0.00000E+00  1.0E-05
  5.250E-03  2.09900E-09  6.22844E-14  2.22422E+03  0.00000E+00  1.0E-05
  5.500E-03  2.30367E-09  6.21849E-14  2.22066E+03  0.00000E+00  1.0E-05
  5.750E-03  2.51785E-09  6.20810E-14  2.21695E+03  0.00000E+00  1.0E-05
  6.000E-03  2.74156E-09  6.19728E-14  2.21309E+03  0.00000E+00  1.0E-05
  6.250E-03  2.97478E-09  6.18601E-14  2.20906E+03  0.00000E+00  1.0E-05
  6.500E-03  3.21752E-09  6.17432E-14  2.20489E+03  0.00000E+00  1.0E-05
  6.750E-03  3.46978E-09  6.16221E-14  2.20056E+03  0.00000E+00  1.0E-05
  7.000E-03  3.73156E-09  6.14965E-14  2.19608E+03  0.00000E+00  1.0E-05
  7.250E-03  4.00286E-09  6.13669E-14  2.19145E+03  0.00000E+00  1.0E-05
  7.500E-03  4.28368E-09  6.12331E-14  2.18667E+03  0.00000E+00  1.0E-05
  7.750E-03  4.57402E-09  6.10952E-14  2.18175E+03  0.00000E+00  1.0E-05
  8.000E-03  4.87388E-09  6.09531E-14  2.17667E+03  0.00000E+00  1.0E-05
  8.250E-03  5.18326E-09  6.08070E-14  2.17146E+03  0.00000E+00  1.0E-05
  8.500E-03  5.50215E-09  6.06571E-14  2.16611E+03  0.00000E+00  1.0E-05
  8.750E-03  5.83057E-09  6.05029E-14  2.16060E+03  0.00000E+00  1.0E-05
  9.000E-03  6.16850E-09  6.03449E-14  2.15495E+03  0.00000E+00  1.0E-05
  9.250E-03  6.51596E-09  6.01832E-14  2.14918E+03  0.00000E+00  1.0E-05
  9.500E-03  6.87293E-09  6.00174E-14  2.14326E+03  0.00000E+00  1.0E-05
  9.750E-03  7.23942E-09  5.98478E-14  2.13720E+03  0.00000E+00  1.0E-05
  1.000E-02  7.61544E-09  5.96747E-14  2.13102E+03  0.00000E+00  1.0E-05
  1.250E-02  1.18991E-08  5.77472E-14  2.06219E+03  0.00000E+00  1.0E-05
  1.500E-02  1.71347E-08  5.55020E-14  1.98201E+03  0.00000E+00  1.0E-05
  1.750E-02  2.33223E-08  5.29955E-14  1.89250E+03  0.00000E+00  1.0E-05
  2.000E-02  3.04617E-08  5.02868E-14  1.79578E+03  0.00000E+00  1.0E-05
  2.250E-02  3.85531E-08  4.74352E-14  1.69394E+03  0.00000E+00  1.0E-05
  2.500E-02  4.75965E-08  4.44975E-14  1.58904E+03  0.00000E+00  1.0E-05
  2.750E-02  5.75917E-08  4.15265E-14  1.48294E+03  0.00000E+00  1.0E-05
  3.000E-02  6.85389E-08  3.85692E-14  1.37733E+03  0.00000E+00  1.0E-05
  3.250E-02  8.04380E-08  3.56663E-14  1.27367E+03  0.00000E+00  1.0E-05
  3.500E-02  9.32891E-08  3.28207E-14  1.17205E+03  0.00000E+00  1.0E-05
  3.750E-02  1.07092E-07  3.00830E-14  1.07428E+03  0.00000E+00  1.0E-05
  4.000E-02  1.21847E-07  2.75315E-14  9.83167E+02  0.00000E+00  1.0E-05
  4.250E-02  1.37554E-07  2.51690E-14  8.98800E+02  0.00000E+00  1.0E-05
  4.500E-02  1.54213E-07  2.28733E-14  8.16819E+02  0.00000E+00  1.0E-05
  4.750E-02  1.71823E-07  2.07728E-14  7.41809E+02  0.00000E+00  1.0E-05
  5.000E-02  1.90386E-07  1.88590E-14  6.73467E+02  0.00000E+00  1.0E-05
  5.250E-02  2.09900E-07  1.70815E-14  6.09991E+02  0.00000E+00  1.0E-05
  5.500E-02  2.30367E-07  1.54472E-14  5.51628E+02  0.00000E+00  1.0E-05
  5.750E-02  2.51785E-07  1.39718E-14  4.98941E+02  0.00000E+00  1.0E-05
  6.000E-02  2.74156E-07  1.26365E-14  4.51257E+02  0.00000E+00  1.0E-05
  6.250E-02  2.97478E-07  1.14131E-14  4.07568E+02  0.00000E+00  1.0E-05
  6.500E-02  3.21752E-07  1.03134E-14  3.68298E+02  0.00000E+00  1.0E-05
  6.750E-02  3.46978E-07  9.32538E-15  3.33015E+02  0.00000E+00  1.0E-05
  7.000E-02  3.73156E-07  8.43299E-15  3.01147E+02  0.00000E+00  1.0E-05
  7.250E-02  4.00286E-07  7.63035E-15  2.72485E+02  0.00000E+00  1.0E-05
  7.500E-02  4.28368E-07  6.90950E-15  2.46743E+02  0.00000E+00  1.0E-05
  7.750E-02  4.57402E-07  6.26296E-15  2.23654E+02  0.00000E+00  1.0E-05
  8.000E-02  4.87388E-07  5.68341E-15  2.02958E+02  0.00000E+00  1.0E-05
  8.250E-02  5.18325E-07  5.16206E-15  1.84340E+02  0.00000E+00  1.0E-05
  8.500E-02  5.50215E-07  4.69276E-15  1.67581E+02  0.00000E+00  1.0E-05
  8.750E-02  5.83057E-07  4.27536E-15  1.52676E+02  0.00000E+00  1.0E-05
  9.000E-02  6.16850E-07  3.89891E-15  1.39233E+02  0.00000E+00  1.0E-05
  9.250E-02  6.51596E-07  3.55899E-15  1.27094E+02  0.00000E+00  1.0E-05
  9.500E-02  6.87293E-07  3.25506E-15  1.16240E+02  0.00000E+00  1.0E-05
  9.750E-02  7.23942E-07  2.98220E-15  1.06496E+02  0.00000E+00  1.0E-05
  1.000E-01  7.61543E-07  2.73490E-15  9.76649E+01  0.00000E+00  1.0E-05
  1.250E-01  1.18991E-06  1.25516E-15  4.48226E+01  0.00000E+00  1.0E-05
  1.500E-01  1.71347E-06  6.63575E-16  2.36967E+01  0.00000E+00  1.0E-05
  1.750E-01  2.33223E-06  3.92008E-16  1.39989E+01  0.00000E+00  1.0E-05
  2.000E-01  3.04617E-06  2.51678E-16  8.98757E+00  0.00000E+00  1.0E-05
  2.250E-01  3.85531E-06  1.71296E-16  6.11709E+00  0.00000E+00  1.0E-05
  2.500E-01  4.75964E-06  1.21655E-16  4.34439E+00  0.00000E+00  1.0E-05
  2.750E-01  5.75916E-06  8.92839E-17  3.18839E+00  0.00000E+00  1.0E-05
  3.000E-01  6.85388E-06  6.71751E-17  2.39886E+00  0.00000E+00  1.0E-05
  3.250E-01  8.04378E-06  5.15360E-17  1.84038E+00  0.00000E+00  1.0E-05
  3.500E-01  9.32888E-06  4.01489E-17  1.43374E+00  0.00000E+00  1.0E-05
  3.750E-01  1.07092E-05  3.17993E-17  1.13557E+00  0.00000E+00  1.0E-05
  4.000E-01  1.21846E-05  2.54329E-17  9.08224E-01  0.00000E+00  1.0E-05
  4.250E-01  1.37553E-05  2.05764E-17  7.34798E-01  0.00000E+00  1.0E-05
  4.500E-01  1.54212E-05  1.68184E-17  6.00595E-01  0.00000E+00  1.0E-05
  4.750E-01  1.71822E-05  1.38671E-17  4.95202E-01  0.00000E+00  1.0E-05
  5.000E-01  1.90385E-05  1.15227E-17  4.11484E-01  0.00000E+00  1.0E-05
  5.250E-01  2.09899E-05  9.64139E-18  3.44300E-01  0.00000E+00  1.0E-05
  5.500E-01  2.30365E-05  8.12258E-18  2.90062E-01  0.00000E+00  1.0E-05
  5.750E-01  2.51783E-05  6.88407E-18  2.45835E-01  0.00000E+00  1.0E-05
  6.000E-01  2.74153E-05  5.86825E-18  2.09559E-01  0.00000E+00  1.0E-05
  6.250E-01  2.97475E-05  5.03228E-18  1.79706E-01  0.00000E+00  1.0E-05
  6.500E-01  3.21749E-05  4.33924E-18  1.54957E-01  0.00000E+00  1.0E-05
  6.750E-01  3.46974E-05  3.75963E-18  1.34259E-01  0.00000E+00  1.0E-05
  7.000E-01  3.73152E-05  3.27244E-18  1.16861E-01  0.00000E+00  1.0E-05
  7.250E-01  4.00281E-05  2.86083E-18  1.02162E-01  0.00000E+00  1.0E-05
  7.500E-01  4.28362E-05  2.51101E-18  8.96699E-02  0.00000E+00  1.0E-05
  7.750E-01  4.57395E-05  2.21188E-18  7.89878E-02  0.00000E+00  1.0E-05
  8.000E-01  4.87380E-05  1.95541E-18  6.98288E-02  0.00000E+00  1.0E-05
  8.250E-01  5.18317E-05  1.73476E-18  6.19495E-02  0.00000E+00  1.0E-05
  8.500E-01  5.50205E-05  1.54424E-18  5.51458E-02  0.00000E+00  1.0E-05
  8.750E-01  5.83045E-05  1.37889E-18  4.92412E-02  0.00000E+00  1.0E-05
  9.000E-01  6.16838E-05  1.23508E-18  4.41057E-02  0.00000E+00  1.0E-05
  9.250E-01  6.51582E-05  1.10950E-18  3.96210E-02  0.00000E+00  1.0E-05
  9.500E-01  6.87277E-05  9.99380E-19  3.56885E-02  0.00000E+00  1.0E-05
  9.750E-01  7.23925E-05  9.02403E-19  3.22254E-02  0.00000E+00  1.0E-05
  1.000E+00  7.61524E-05  8.16813E-19  2.91689E-02  0.00000E+00  1.6E-04
  1.100E+00  9.21439E-05  5.60582E-19  2.00187E-02  0.00000E+00  1.2E-04
  1.200E+00  1.09658E-04  3.97258E-19  1.41863E-02  0.00000E+00  6.9E-05
  1.300E+00  1.28695E-04  2.89097E-19  1.03238E-02  0.00000E+00  1.8E-05
  1.400E+00  1.49255E-04  2.15309E-19  7.68882E-03  0.00000E+00  2.3E-05
  1.500E+00  1.71338E-04  1.63605E-19  5.84245E-03  0.00000E+00  4.5E-05
  1.600E+00  1.94942E-04  1.26493E-19  4.51713E-03  0.00000E+00  4.9E-05
  1.700E+00  2.20070E-04  9.93367E-20  3.54738E-03  0.00000E+00  4.1E-05
  1.800E+00  2.46720E-04  7.90752E-20  2.82383E-03  0.00000E+00  2.4E-05
  1.900E+00  2.74892E-04  6.37281E-20  2.27577E-03  0.00000E+00  6.2E-06
  2.000E+00  3.04586E-04  5.19268E-20  1.85434E-03  0.00000E+00  1.0E-05
  2.100E+00  3.35803E-04  4.27321E-20  1.52599E-03  0.00000E+00  2.0E-05
  2.200E+00  3.68542E-04  3.54843E-20  1.26717E-03  0.00000E+00  2.2E-05
  2.300E+00  4.02802E-04  2.97076E-20  1.06088E-03  0.00000E+00  1.9E-05
  2.400E+00  4.38585E-04  2.50616E-20  8.94968E-04  0.00000E+00  1.2E-05
  2.500E+00  4.75889E-04  2.12886E-20  7.60231E-04  0.00000E+00  2.8E-06
  2.600E+00  5.14715E-04  1.81999E-20  6.49929E-04  0.00000E+00  5.8E-06
  2.700E+00  5.55063E-04  1.56518E-20  5.58938E-04  0.00000E+00  1.1E-05
  2.800E+00  5.96931E-04  1.35341E-20  4.83310E-04  0.00000E+00  1.2E-05
  2.900E+00  6.40321E-04  1.17632E-20  4.20071E-04  0.00000E+00  1.1E-05
  3.000E+00  6.85233E-04  1.02723E-20  3.66832E-04  0.00000E+00  6.5E-06
  3.100E+00  7.31665E-04  9.01059E-21  3.21774E-04  0.00000E+00  1.4E-06
  3.200E+00  7.79618E-04  7.93674E-21  2.83426E-04  0.00000E+00  3.7E-06
  3.300E+00  8.29092E-04  7.01813E-21  2.50622E-04  0.00000E+00  6.7E-06
  3.400E+00  8.80086E-04  6.22881E-21  2.22435E-04  0.00000E+00  7.6E-06
  3.500E+00  9.32601E-04  5.54727E-21  1.98097E-04  0.00000E+00  6.5E-06
  3.600E+00  9.86636E-04  4.95657E-21  1.77002E-04  0.00000E+00  4.0E-06
  3.700E+00  1.04219E-03  4.44239E-21  1.58641E-04  0.00000E+00  7.8E-07
  3.800E+00  1.09927E-03  3.99321E-21  1.42600E-04  0.00000E+00  2.6E-06
  3.900E+00  1.15786E-03  3.59943E-21  1.28538E-04  0.00000E+00  4.5E-06
  4.000E+00  1.21797E-03  3.25297E-21  1.16166E-04  0.00000E+00  5.1E-06
  4.100E+00  1.27961E-03  2.94726E-21  1.05249E-04  0.00000E+00  4.4E-06
  4.200E+00  1.34276E-03  2.67661E-21  9.55834E-05  0.00000E+00  2.7E-06
  4.300E+00  1.40743E-03  2.43634E-21  8.70034E-05  0.00000E+00  4.4E-07
  4.400E+00  1.47362E-03  2.22245E-21  7.93650E-05  0.00000E+00  1.9E-06
  4.500E+00  1.54133E-03  2.03150E-21  7.25464E-05  0.00000E+00  3.2E-06
  4.600E+00  1.61056E-03  1.86066E-21  6.64454E-05  0.00000E+00  3.6E-06
  4.700E+00  1.68131E-03  1.70738E-21  6.09718E-05  0.00000E+00  3.1E-06
  4.800E+00  1.75357E-03  1.56959E-21  5.60510E-05  0.00000E+00  1.8E-06
  4.900E+00  1.82735E-03  1.44541E-21  5.16166E-05  0.00000E+00  2.5E-07
  5.000E+00  1.90265E-03  1.33328E-21  4.76122E-05  0.00000E+00  1.5E-06
  5.100E+00  1.97947E-03  1.23182E-21  4.39890E-05  0.00000E+00  2.4E-06
  5.200E+00  2.05780E-03  1.13982E-21  4.07037E-05  0.00000E+00  2.6E-06
  5.300E+00  2.13765E-03  1.05626E-21  3.77199E-05  0.00000E+00  2.3E-06
  5.400E+00  2.21902E-03  9.80218E-22  3.50042E-05  0.00000E+00  1.3E-06
  5.500E+00  2.30190E-03  9.10900E-22  3.25288E-05  0.00000E+00  1.4E-07
  5.600E+00  2.38630E-03  8.47603E-22  3.02685E-05  0.00000E+00  1.2E-06
  5.700E+00  2.47222E-03  7.89708E-22  2.82010E-05  0.00000E+00  1.9E-06
  5.800E+00  2.55965E-03  7.36677E-22  2.63072E-05  0.00000E+00  2.0E-06
  5.900E+00  2.64859E-03  6.88020E-22  2.45697E-05  0.00000E+00  1.7E-06
  6.000E+00  2.73905E-03  6.43319E-22  2.29734E-05  0.00000E+00  9.9E-07
  6.100E+00  2.83103E-03  6.02189E-22  2.15046E-05  0.00000E+00  1.1E-07
  6.200E+00  2.92452E-03  5.64294E-22  2.01513E-05  0.00000E+00  9.6E-07
  6.300E+00  3.01952E-03  5.29335E-22  1.89029E-05  0.00000E+00  1.5E-06
  6.400E+00  3.11604E-03  4.97040E-22  1.77496E-05  0.00000E+00  1.6E-06
  6.500E+00  3.21407E-03  4.67174E-22  1.66831E-05  0.00000E+00  1.3E-06
  6.600E+00  3.31362E-03  4.39516E-22  1.56954E-05  0.00000E+00  7.6E-07
  6.700E+00  3.41468E-03  4.13876E-22  1.47798E-05  0.00000E+00  1.4E-07
  6.800E+00  3.51725E-03  3.90079E-22  1.39300E-05  0.00000E+00  8.0E-07
  6.900E+00  3.62133E-03  3.67967E-22  1.31403E-05  0.00000E+00  1.2E-06
  7.000E+00  3.72692E-03  3.47402E-22  1.24059E-05  0.00000E+00  1.3E-06
  7.100E+00  3.83403E-03  3.28252E-22  1.17221E-05  0.00000E+00  1.1E-06
  7.200E+00  3.94265E-03  3.10405E-22  1.10848E-05  0.00000E+00  5.9E-07
  7.300E+00  4.05278E-03  2.93754E-22  1.04901E-05  0.00000E+00  1.5E-07
  7.400E+00  4.16442E-03  2.78205E-22  9.93487E-06  0.00000E+00  6.8E-07
  7.500E+00  4.27757E-03  2.63671E-22  9.41587E-06  0.00000E+00  9.9E-07
  7.600E+00  4.39223E-03  2.50074E-22  8.93031E-06  0.00000E+00  1.0E-06
  7.700E+00  4.50840E-03  2.37343E-22  8.47567E-06  0.00000E+00  8.6E-07
  7.800E+00  4.62608E-03  2.25411E-22  8.04958E-06  0.00000E+00  4.7E-07
  7.900E+00  4.74527E-03  2.14220E-22  7.64995E-06  0.00000E+00  1.5E-07
  8.000E+00  4.86597E-03  2.03716E-22  7.27481E-06  0.00000E+00  5.8E-07
  8.100E+00  4.98817E-03  1.93846E-22  6.92238E-06  0.00000E+00  8.3E-07
  8.200E+00  5.11188E-03  1.84568E-22  6.59105E-06  0.00000E+00  8.6E-07
  8.300E+00  5.23711E-03  1.75838E-22  6.27930E-06  0.00000E+00  7.0E-07
  8.400E+00  5.36383E-03  1.67619E-22  5.98577E-06  0.00000E+00  3.7E-07
  8.500E+00  5.49207E-03  1.59874E-22  5.70919E-06  0.00000E+00  1.5E-07
  8.600E+00  5.62181E-03  1.52571E-22  5.44840E-06  0.00000E+00  5.1E-07
  8.700E+00  5.75306E-03  1.45680E-22  5.20234E-06  0.00000E+00  7.1E-07
  8.800E+00  5.88581E-03  1.39174E-22  4.97001E-06  0.00000E+00  7.2E-07
  8.900E+00  6.02007E-03  1.33028E-22  4.75051E-06  0.00000E+00  5.8E-07
  9.000E+00  6.15583E-03  1.27217E-22  4.54299E-06  0.00000E+00  3.0E-07
  9.100E+00  6.29310E-03  1.21719E-22  4.34668E-06  0.00000E+00  1.5E-07
  9.200E+00  6.43187E-03  1.16516E-22  4.16086E-06  0.00000E+00  4.5E-07
  9.300E+00  6.57214E-03  1.11588E-22  3.98486E-06  0.00000E+00  6.1E-07
  9.400E+00  6.71392E-03  1.06917E-22  3.81808E-06  0.00000E+00  6.1E-07
  9.500E+00  6.85720E-03  1.02488E-22  3.65992E-06  0.00000E+00  4.9E-07
  9.600E+00  7.00198E-03  9.82865E-23  3.50987E-06  0.00000E+00  2.5E-07
  9.700E+00  7.14827E-03  9.42978E-23  3.36743E-06  0.00000E+00  1.5E-07
  9.800E+00  7.29605E-03  9.05093E-23  3.23215E-06  0.00000E+00  3.9E-07
  9.900E+00  7.44534E-03  8.69093E-23  3.10359E-06  0.00000E+00  5.3E-07
  1.000E+01  7.59612E-03  8.34864E-23  2.98135E-06  0.00000E+00  5.3E-07
  1.025E+01  7.97965E-03  7.56382E-23  2.70109E-06  0.00000E+00  5.0E-07
  1.050E+01  8.37255E-03  6.86908E-23  2.45299E-06  0.00000E+00  4.6E-07
  1.075E+01  8.77480E-03  6.25230E-23  2.23274E-06  0.00000E+00  4.0E-07
  1.100E+01  9.18641E-03  5.70320E-23  2.03665E-06  0.00000E+00  3.2E-07
  1.125E+01  9.60736E-03  5.21307E-23  1.86162E-06  0.00000E+00  2.3E-07
  1.150E+01  1.00376E-02  4.77447E-23  1.70499E-06  0.00000E+00  1.3E-07
  1.175E+01  1.04773E-02  4.38102E-23  1.56449E-06  0.00000E+00  1.0E-07
  1.200E+01  1.09262E-02  4.02727E-23  1.43817E-06  0.00000E+00  1.1E-07
  1.225E+01  1.13844E-02  3.70851E-23  1.32433E-06  0.00000E+00  1.8E-07
  1.250E+01  1.18520E-02  3.42065E-23  1.22154E-06  0.00000E+00  2.3E-07
  1.275E+01  1.23288E-02  3.16018E-23  1.12852E-06  0.00000E+00  2.6E-07
  1.300E+01  1.28150E-02  2.92403E-23  1.04419E-06  0.00000E+00  2.7E-07
  1.325E+01  1.33104E-02  2.70952E-23  9.67588E-07  0.00000E+00  2.7E-07
  1.350E+01  1.38150E-02  2.51432E-23  8.97879E-07  0.00000E+00  2.6E-07
  1.375E+01  1.43290E-02  2.33637E-23  8.34332E-07  0.00000E+00  2.4E-07
  1.400E+01  1.48521E-02  2.17388E-23  7.76306E-07  0.00000E+00  2.0E-07
  1.425E+01  1.53845E-02  2.02527E-23  7.23235E-07  0.00000E+00  1.6E-07
  1.450E+01  1.59262E-02  1.88913E-23  6.74620E-07  0.00000E+00  1.1E-07
  1.475E+01  1.64770E-02  1.76423E-23  6.30019E-07  0.00000E+00  1.0E-07
  1.500E+01  1.70371E-02  1.64948E-23  5.89041E-07  0.00000E+00  1.0E-07
  1.525E+01  1.76063E-02  1.54390E-23  5.51338E-07  0.00000E+00  1.0E-07
