 #
 # Subroutine ELSEPA. Elastic scattering of electrons and positrons
 #                    by neutral atoms and positive ions
 #
 # Projectile: electron
 # Kinetic energy = 3.70000E+06 eV = 1.35973E+05 a.u.
 #
 # WARNING: High-energy factorization with free-atom DF screening.
 #          Absorption, polarization and exchange corrections are
 #          switched off.
 #          Phase shifts are calculated for the bare nucleus.
 #          Scattering amplitudes are not evaluated.
 #
 # Element: Cd,  Z =  48,  atomic weight = 1.12411E+02 g/mol
 #
 # Nuclear model: Fermi distribution
 #                Average radius = 5.16401E-13 cm
 #                Skin thickness = 5.46000E-14 cm
 #
 # Number of electrons = 48
 #
 # Total elastic cross section = 4.56851E-18 cm**2 = 1.63144E-01 a0**2
 # 1st transport cross section = 2.02695E-22 cm**2 = 7.23835E-06 a0**2
 # 2nd transport cross section = 5.63828E-22 cm**2 = 2.01347E-05 a0**2
 #
 #
 # Differential cross section:                       MU=(1-COS(THETA))/2
 #
 #  THETA        MU          DCS          DCS        Sherman      error
 #  (deg)                 (cm**2/sr)   (a0**2/sr)    function
 #----------------------------------------------------------------------
  0.000E+00  0.00000E+00  5.60264E-13  2.00074E+04  0.00000E+00  1.0E-05
  1.000E-04  7.61557E-13  5.60262E-13  2.00073E+04  0.00000E+00  1.0E-05
  1.250E-04  1.18994E-12  5.60261E-13  2.00073E+04  0.00000E+00  1.0E-05
  1.500E-04  1.71346E-12  5.60260E-13  2.00072E+04  0.00000E+00  1.0E-05
  1.750E-04  2.33225E-12  5.60258E-13  2.00072E+04  0.00000E+00  1.0E-05
  2.000E-04  3.04617E-12  5.60256E-13  2.00071E+04  0.00000E+00  1.0E-05
  2.250E-04  3.85530E-12  5.60254E-13  2.00070E+04  0.00000E+00  1.0E-05
  2.500E-04  4.75964E-12  5.60251E-13  2.00069E+04  0.00000E+00  1.0E-05
  2.750E-04  5.75917E-12  5.60248E-13  2.00068E+04  0.00000E+00  1.0E-05
  3.000E-04  6.85391E-12  5.60245E-13  2.00067E+04  0.00000E+00  1.0E-05
  3.250E-04  8.04379E-12  5.60242E-13  2.00066E+04  0.00000E+00  1.0E-05
  3.500E-04  9.32893E-12  5.60238E-13  2.00065E+04  0.00000E+00  1.0E-05
  3.750E-04  1.07092E-11  5.60235E-13  2.00063E+04  0.00000E+00  1.0E-05
  4.000E-04  1.21847E-11  5.60230E-13  2.00062E+04  0.00000E+00  1.0E-05
  4.250E-04  1.37554E-11  5.60226E-13  2.00060E+04  0.00000E+00  1.0E-05
  4.500E-04  1.54213E-11  5.60221E-13  2.00059E+04  0.00000E+00  1.0E-05
  4.750E-04  1.71823E-11  5.60217E-13  2.00057E+04  0.00000E+00  1.0E-05
  5.000E-04  1.90386E-11  5.60211E-13  2.00055E+04  0.00000E+00  1.0E-05
  5.250E-04  2.09900E-11  5.60206E-13  2.00053E+04  0.00000E+00  1.0E-05
  5.500E-04  2.30367E-11  5.60200E-13  2.00051E+04  0.00000E+00  1.0E-05
  5.750E-04  2.51785E-11  5.60194E-13  2.00049E+04  0.00000E+00  1.0E-05
  6.000E-04  2.74156E-11  5.60188E-13  2.00047E+04  0.00000E+00  1.0E-05
  6.250E-04  2.97478E-11  5.60181E-13  2.00044E+04  0.00000E+00  1.0E-05
  6.500E-04  3.21752E-11  5.60175E-13  2.00042E+04  0.00000E+00  1.0E-05
  6.750E-04  3.46979E-11  5.60168E-13  2.00039E+04  0.00000E+00  1.0E-05
  7.000E-04  3.73157E-11  5.60160E-13  2.00037E+04  0.00000E+00  1.0E-05
  7.250E-04  4.00286E-11  5.60153E-13  2.00034E+04  0.00000E+00  1.0E-05
  7.500E-04  4.28368E-11  5.60145E-13  2.00031E+04  0.00000E+00  1.0E-05
  7.750E-04  4.57402E-11  5.60137E-13  2.00028E+04  0.00000E+00  1.0E-05
  8.000E-04  4.87388E-11  5.60128E-13  2.00025E+04  0.00000E+00  1.0E-05
  8.250E-04  5.18325E-11  5.60120E-13  2.00022E+04  0.00000E+00  1.0E-05
  8.500E-04  5.50215E-11  5.60111E-13  2.00019E+04  0.00000E+00  1.0E-05
  8.750E-04  5.83057E-11  5.60101E-13  2.00016E+04  0.00000E+00  1.0E-05
  9.000E-04  6.16850E-11  5.60092E-13  2.00012E+04  0.00000E+00  1.0E-05
  9.250E-04  6.51595E-11  5.60082E-13  2.00009E+04  0.00000E+00  1.0E-05
  9.500E-04  6.87293E-11  5.60072E-13  2.00005E+04  0.00000E+00  1.0E-05
  9.750E-04  7.23943E-11  5.60062E-13  2.00002E+04  0.00000E+00  1.0E-05
  1.000E-03  7.61544E-11  5.60051E-13  1.99998E+04  0.00000E+00  1.0E-05
  1.250E-03  1.18991E-10  5.59931E-13  1.99955E+04  0.00000E+00  1.0E-05
  1.500E-03  1.71347E-10  5.59785E-13  1.99903E+04  0.00000E+00  1.0E-05
  1.750E-03  2.33223E-10  5.59612E-13  1.99841E+04  0.00000E+00  1.0E-05
  2.000E-03  3.04617E-10  5.59412E-13  1.99770E+04  0.00000E+00  1.0E-05
  2.250E-03  3.85531E-10  5.59185E-13  1.99689E+04  0.00000E+00  1.0E-05
  2.500E-03  4.75965E-10  5.58933E-13  1.99598E+04  0.00000E+00  1.0E-05
  2.750E-03  5.75917E-10  5.58653E-13  1.99499E+04  0.00000E+00  1.0E-05
  3.000E-03  6.85389E-10  5.58348E-13  1.99390E+04  0.00000E+00  1.0E-05
  3.250E-03  8.04380E-10  5.58016E-13  1.99271E+04  0.00000E+00  1.0E-05
  3.500E-03  9.32891E-10  5.57658E-13  1.99143E+04  0.00000E+00  1.0E-05
  3.750E-03  1.07092E-09  5.57274E-13  1.99006E+04  0.00000E+00  1.0E-05
  4.000E-03  1.21847E-09  5.56864E-13  1.98860E+04  0.00000E+00  1.0E-05
  4.250E-03  1.37554E-09  5.56429E-13  1.98704E+04  0.00000E+00  1.0E-05
  4.500E-03  1.54213E-09  5.55967E-13  1.98539E+04  0.00000E+00  1.0E-05
  4.750E-03  1.71823E-09  5.55480E-13  1.98365E+04  0.00000E+00  1.0E-05
  5.000E-03  1.90386E-09  5.54967E-13  1.98182E+04  0.00000E+00  1.0E-05
  5.250E-03  2.09900E-09  5.54429E-13  1.97990E+04  0.00000E+00  1.0E-05
  5.500E-03  2.30367E-09  5.53866E-13  1.97789E+04  0.00000E+00  1.0E-05
  5.750E-03  2.51785E-09  5.53277E-13  1.97579E+04  0.00000E+00  1.0E-05
  6.000E-03  2.74156E-09  5.52664E-13  1.97360E+04  0.00000E+00  1.0E-05
  6.250E-03  2.97478E-09  5.52025E-13  1.97132E+04  0.00000E+00  1.0E-05
  6.500E-03  3.21752E-09  5.51362E-13  1.96895E+04  0.00000E+00  1.0E-05
  6.750E-03  3.46978E-09  5.50675E-13  1.96650E+04  0.00000E+00  1.0E-05
  7.000E-03  3.73156E-09  5.49963E-13  1.96395E+04  0.00000E+00  1.0E-05
  7.250E-03  4.00286E-09  5.49227E-13  1.96133E+04  0.00000E+00  1.0E-05
  7.500E-03  4.28368E-09  5.48467E-13  1.95861E+04  0.00000E+00  1.0E-05
  7.750E-03  4.57402E-09  5.47684E-13  1.95581E+04  0.00000E+00  1.0E-05
  8.000E-03  4.87388E-09  5.46876E-13  1.95293E+04  0.00000E+00  1.0E-05
  8.250E-03  5.18326E-09  5.46046E-13  1.94996E+04  0.00000E+00  1.0E-05
  8.500E-03  5.50215E-09  5.45192E-13  1.94692E+04  0.00000E+00  1.0E-05
  8.750E-03  5.83057E-09  5.44315E-13  1.94378E+04  0.00000E+00  1.0E-05
  9.000E-03  6.16850E-09  5.43415E-13  1.94057E+04  0.00000E+00  1.0E-05
  9.250E-03  6.51596E-09  5.42493E-13  1.93728E+04  0.00000E+00  1.0E-05
  9.500E-03  6.87293E-09  5.41549E-13  1.93391E+04  0.00000E+00  1.0E-05
  9.750E-03  7.23942E-09  5.40582E-13  1.93045E+04  0.00000E+00  1.0E-05
  1.000E-02  7.61544E-09  5.39593E-13  1.92692E+04  0.00000E+00  1.0E-05
  1.250E-02  1.18991E-08  5.28556E-13  1.88751E+04  0.00000E+00  1.0E-05
  1.500E-02  1.71347E-08  5.15557E-13  1.84109E+04  0.00000E+00  1.0E-05
  1.750E-02  2.33223E-08  5.00967E-13  1.78899E+04  0.00000E+00  1.0E-05
  2.000E-02  3.04617E-08  4.85080E-13  1.73225E+04  0.00000E+00  1.0E-05
  2.250E-02  3.85531E-08  4.68105E-13  1.67163E+04  0.00000E+00  1.0E-05
  2.500E-02  4.75965E-08  4.50344E-13  1.60821E+04  0.00000E+00  1.0E-05
  2.750E-02  5.75917E-08  4.32142E-13  1.54321E+04  0.00000E+00  1.0E-05
  3.000E-02  6.85389E-08  4.13753E-13  1.47754E+04  0.00000E+00  1.0E-05
  3.250E-02  8.04380E-08  3.95320E-13  1.41171E+04  0.00000E+00  1.0E-05
  3.500E-02  9.32891E-08  3.76991E-13  1.34626E+04  0.00000E+00  1.0E-05
  3.750E-02  1.07092E-07  3.59039E-13  1.28215E+04  0.00000E+00  1.0E-05
  4.000E-02  1.21847E-07  3.41587E-13  1.21983E+04  0.00000E+00  1.0E-05
  4.250E-02  1.37554E-07  3.24690E-13  1.15949E+04  0.00000E+00  1.0E-05
  4.500E-02  1.54213E-07  3.08325E-13  1.10105E+04  0.00000E+00  1.0E-05
  4.750E-02  1.71823E-07  2.92676E-13  1.04517E+04  0.00000E+00  1.0E-05
  5.000E-02  1.90386E-07  2.77769E-13  9.91931E+03  0.00000E+00  1.0E-05
  5.250E-02  2.09900E-07  2.63608E-13  9.41362E+03  0.00000E+00  1.0E-05
  5.500E-02  2.30367E-07  2.50061E-13  8.92986E+03  0.00000E+00  1.0E-05
  5.750E-02  2.51785E-07  2.37259E-13  8.47268E+03  0.00000E+00  1.0E-05
  6.000E-02  2.74156E-07  2.25178E-13  8.04124E+03  0.00000E+00  1.0E-05
  6.250E-02  2.97478E-07  2.13789E-13  7.63453E+03  0.00000E+00  1.0E-05
  6.500E-02  3.21752E-07  2.02976E-13  7.24839E+03  0.00000E+00  1.0E-05
  6.750E-02  3.46978E-07  1.92782E-13  6.88435E+03  0.00000E+00  1.0E-05
  7.000E-02  3.73156E-07  1.83191E-13  6.54187E+03  0.00000E+00  1.0E-05
  7.250E-02  4.00286E-07  1.74168E-13  6.21965E+03  0.00000E+00  1.0E-05
  7.500E-02  4.28368E-07  1.65626E-13  5.91463E+03  0.00000E+00  1.0E-05
  7.750E-02  4.57402E-07  1.57560E-13  5.62657E+03  0.00000E+00  1.0E-05
  8.000E-02  4.87388E-07  1.49968E-13  5.35546E+03  0.00000E+00  1.0E-05
  8.250E-02  5.18325E-07  1.42819E-13  5.10017E+03  0.00000E+00  1.0E-05
  8.500E-02  5.50215E-07  1.36056E-13  4.85865E+03  0.00000E+00  1.0E-05
  8.750E-02  5.83057E-07  1.29645E-13  4.62972E+03  0.00000E+00  1.0E-05
  9.000E-02  6.16850E-07  1.23601E-13  4.41386E+03  0.00000E+00  1.0E-05
  9.250E-02  6.51596E-07  1.17897E-13  4.21018E+03  0.00000E+00  1.0E-05
  9.500E-02  6.87293E-07  1.12500E-13  4.01743E+03  0.00000E+00  1.0E-05
  9.750E-02  7.23942E-07  1.07362E-13  3.83396E+03  0.00000E+00  1.0E-05
  1.000E-01  7.61543E-07  1.02506E-13  3.66056E+03  0.00000E+00  1.0E-05
  1.250E-01  1.18991E-06  6.56574E-14  2.34467E+03  0.00000E+00  1.0E-05
  1.500E-01  1.71347E-06  4.24654E-14  1.51647E+03  0.00000E+00  1.0E-05
  1.750E-01  2.33223E-06  2.86716E-14  1.02388E+03  0.00000E+00  1.0E-05
  2.000E-01  3.04617E-06  1.98192E-14  7.07757E+02  0.00000E+00  1.0E-05
  2.250E-01  3.85531E-06  1.39208E-14  4.97122E+02  0.00000E+00  1.0E-05
  2.500E-01  4.75964E-06  1.00245E-14  3.57980E+02  0.00000E+00  1.0E-05
  2.750E-01  5.75916E-06  7.41168E-15  2.64676E+02  0.00000E+00  1.0E-05
  3.000E-01  6.85388E-06  5.61096E-15  2.00371E+02  0.00000E+00  1.0E-05
  3.250E-01  8.04378E-06  4.33722E-15  1.54885E+02  0.00000E+00  1.0E-05
  3.500E-01  9.32888E-06  3.41685E-15  1.22018E+02  0.00000E+00  1.0E-05
  3.750E-01  1.07092E-05  2.73938E-15  9.78249E+01  0.00000E+00  1.0E-05
  4.000E-01  1.21846E-05  2.22949E-15  7.96165E+01  0.00000E+00  1.0E-05
  4.250E-01  1.37553E-05  1.83732E-15  6.56120E+01  0.00000E+00  1.0E-05
  4.500E-01  1.54212E-05  1.52855E-15  5.45857E+01  0.00000E+00  1.0E-05
  4.750E-01  1.71822E-05  1.28354E-15  4.58361E+01  0.00000E+00  1.0E-05
  5.000E-01  1.90385E-05  1.08616E-15  3.87873E+01  0.00000E+00  1.0E-05
  5.250E-01  2.09899E-05  9.25952E-16  3.30664E+01  0.00000E+00  1.0E-05
  5.500E-01  2.30365E-05  7.92760E-16  2.83100E+01  0.00000E+00  1.0E-05
  5.750E-01  2.51783E-05  6.82365E-16  2.43677E+01  0.00000E+00  1.0E-05
  6.000E-01  2.74153E-05  5.90163E-16  2.10751E+01  0.00000E+00  1.0E-05
  6.250E-01  2.97475E-05  5.12667E-16  1.83077E+01  0.00000E+00  1.0E-05
  6.500E-01  3.21749E-05  4.46870E-16  1.59580E+01  0.00000E+00  1.0E-05
  6.750E-01  3.46974E-05  3.90937E-16  1.39606E+01  0.00000E+00  1.0E-05
  7.000E-01  3.73152E-05  3.43321E-16  1.22602E+01  0.00000E+00  1.0E-05
  7.250E-01  4.00281E-05  3.02631E-16  1.08071E+01  0.00000E+00  1.0E-05
  7.500E-01  4.28362E-05  2.67617E-16  9.55677E+00  0.00000E+00  1.0E-05
  7.750E-01  4.57395E-05  2.37435E-16  8.47896E+00  0.00000E+00  1.0E-05
  8.000E-01  4.87380E-05  2.11356E-16  7.54764E+00  0.00000E+00  1.0E-05
  8.250E-01  5.18317E-05  1.88729E-16  6.73962E+00  0.00000E+00  1.0E-05
  8.500E-01  5.50205E-05  1.69003E-16  6.03520E+00  0.00000E+00  1.0E-05
  8.750E-01  5.83045E-05  1.51754E-16  5.41922E+00  0.00000E+00  1.0E-05
  9.000E-01  6.16838E-05  1.36651E-16  4.87989E+00  0.00000E+00  1.0E-05
  9.250E-01  6.51582E-05  1.23386E-16  4.40618E+00  0.00000E+00  1.0E-05
  9.500E-01  6.87277E-05  1.11694E-16  3.98866E+00  0.00000E+00  1.0E-05
  9.750E-01  7.23925E-05  1.01353E-16  3.61939E+00  0.00000E+00  1.0E-05
  1.000E+00  7.61524E-05  9.21957E-17  3.29237E+00  0.00000E+00  7.0E-06
  1.100E+00  9.21439E-05  6.45355E-17  2.30461E+00  0.00000E+00  5.2E-06
  1.200E+00  1.09658E-04  4.66015E-17  1.66417E+00  0.00000E+00  2.8E-06
  1.300E+00  1.28695E-04  3.45326E-17  1.23318E+00  0.00000E+00  5.5E-07
  1.400E+00  1.49255E-04  2.61398E-17  9.33470E-01  0.00000E+00  1.1E-06
  1.500E+00  1.71338E-04  2.01702E-17  7.20292E-01  0.00000E+00  2.0E-06
  1.600E+00  1.94942E-04  1.58183E-17  5.64881E-01  0.00000E+00  2.2E-06
  1.700E+00  2.20070E-04  1.25784E-17  4.49184E-01  0.00000E+00  1.7E-06
  1.800E+00  2.46720E-04  1.01220E-17  3.61463E-01  0.00000E+00  9.6E-07
  1.900E+00  2.74892E-04  8.23674E-18  2.94139E-01  0.00000E+00  1.5E-07
  2.000E+00  3.04586E-04  6.77017E-18  2.41767E-01  0.00000E+00  5.2E-07
  2.100E+00  3.35803E-04  5.61514E-18  2.00520E-01  0.00000E+00  9.1E-07
  2.200E+00  3.68542E-04  4.69372E-18  1.67616E-01  0.00000E+00  9.8E-07
  2.300E+00  4.02802E-04  3.95361E-18  1.41186E-01  0.00000E+00  7.9E-07
  2.400E+00  4.38585E-04  3.35361E-18  1.19759E-01  0.00000E+00  4.4E-07
  2.500E+00  4.75889E-04  2.86310E-18  1.02243E-01  0.00000E+00  1.0E-07
  2.600E+00  5.14715E-04  2.45849E-18  8.77944E-02  0.00000E+00  3.0E-07
  2.700E+00  5.55063E-04  2.12290E-18  7.58101E-02  0.00000E+00  5.0E-07
  2.800E+00  5.96931E-04  1.84270E-18  6.58039E-02  0.00000E+00  5.4E-07
  2.900E+00  6.40321E-04  1.60726E-18  5.73964E-02  0.00000E+00  4.3E-07
  3.000E+00  6.85233E-04  1.40820E-18  5.02879E-02  0.00000E+00  2.3E-07
  3.100E+00  7.31665E-04  1.23905E-18  4.42472E-02  0.00000E+00  1.0E-07
  3.200E+00  7.79618E-04  1.09461E-18  3.90893E-02  0.00000E+00  1.9E-07
  3.300E+00  8.29092E-04  9.70674E-19  3.46634E-02  0.00000E+00  3.1E-07
  3.400E+00  8.80086E-04  8.63821E-19  3.08476E-02  0.00000E+00  3.3E-07
  3.500E+00  9.32601E-04  7.71296E-19  2.75435E-02  0.00000E+00  2.6E-07
  3.600E+00  9.86636E-04  6.90882E-19  2.46718E-02  0.00000E+00  1.3E-07
  3.700E+00  1.04219E-03  6.20722E-19  2.21664E-02  0.00000E+00  1.0E-07
  3.800E+00  1.09927E-03  5.59275E-19  1.99721E-02  0.00000E+00  1.4E-07
  3.900E+00  1.15786E-03  5.05264E-19  1.80433E-02  0.00000E+00  2.1E-07
  4.000E+00  1.21797E-03  4.57649E-19  1.63429E-02  0.00000E+00  2.2E-07
  4.100E+00  1.27961E-03  4.15539E-19  1.48392E-02  0.00000E+00  1.7E-07
  4.200E+00  1.34276E-03  3.78185E-19  1.35052E-02  0.00000E+00  1.0E-07
  4.300E+00  1.40743E-03  3.44945E-19  1.23182E-02  0.00000E+00  1.0E-07
  4.400E+00  1.47362E-03  3.15297E-19  1.12595E-02  0.00000E+00  1.0E-07
  4.500E+00  1.54133E-03  2.88783E-19  1.03126E-02  0.00000E+00  1.5E-07
  4.600E+00  1.61056E-03  2.65012E-19  9.46376E-03  0.00000E+00  1.5E-07
  4.700E+00  1.68131E-03  2.43645E-19  8.70072E-03  0.00000E+00  1.2E-07
  4.800E+00  1.75357E-03  2.24399E-19  8.01343E-03  0.00000E+00  1.0E-07
  4.900E+00  1.82735E-03  2.07027E-19  7.39305E-03  0.00000E+00  1.0E-07
  5.000E+00  1.90265E-03  1.91312E-19  6.83187E-03  0.00000E+00  1.0E-07
  5.100E+00  1.97947E-03  1.77066E-19  6.32314E-03  0.00000E+00  1.1E-07
  5.200E+00  2.05780E-03  1.64128E-19  5.86110E-03  0.00000E+00  1.1E-07
  5.300E+00  2.13765E-03  1.52356E-19  5.44073E-03  0.00000E+00  1.0E-07
  5.400E+00  2.21902E-03  1.41627E-19  5.05759E-03  0.00000E+00  1.0E-07
  5.500E+00  2.30190E-03  1.31830E-19  4.70773E-03  0.00000E+00  1.0E-07
  5.600E+00  2.38630E-03  1.22869E-19  4.38773E-03  0.00000E+00  1.0E-07
  5.700E+00  2.47222E-03  1.14661E-19  4.09461E-03  0.00000E+00  1.0E-07
  5.800E+00  2.55965E-03  1.07130E-19  3.82570E-03  0.00000E+00  1.0E-07
  5.900E+00  2.64859E-03  1.00211E-19  3.57861E-03  0.00000E+00  1.0E-07
  6.000E+00  2.73905E-03  9.38439E-20  3.35123E-03  0.00000E+00  1.0E-07
  6.100E+00  2.83103E-03  8.79772E-20  3.14172E-03  0.00000E+00  1.0E-07
  6.200E+00  2.92452E-03  8.25645E-20  2.94843E-03  0.00000E+00  1.0E-07
  6.300E+00  3.01952E-03  7.75639E-20  2.76986E-03  0.00000E+00  1.0E-07
  6.400E+00  3.11604E-03  7.29375E-20  2.60465E-03  0.00000E+00  1.0E-07
  6.500E+00  3.21407E-03  6.86530E-20  2.45164E-03  0.00000E+00  1.0E-07
  6.600E+00  3.31362E-03  6.46803E-20  2.30977E-03  0.00000E+00  1.0E-07
  6.700E+00  3.41468E-03  6.09925E-20  2.17808E-03  0.00000E+00  1.0E-07
  6.800E+00  3.51725E-03  5.75648E-20  2.05568E-03  0.00000E+00  1.0E-07
  6.900E+00  3.62133E-03  5.43759E-20  1.94180E-03  0.00000E+00  1.0E-07
  7.000E+00  3.72692E-03  5.14062E-20  1.83575E-03  0.00000E+00  1.0E-07
  7.100E+00  3.83403E-03  4.86376E-20  1.73688E-03  0.00000E+00  1.0E-07
  7.200E+00  3.94265E-03  4.60538E-20  1.64461E-03  0.00000E+00  1.0E-07
  7.300E+00  4.05278E-03  4.36402E-20  1.55842E-03  0.00000E+00  1.0E-07
  7.400E+00  4.16442E-03  4.13836E-20  1.47784E-03  0.00000E+00  1.0E-07
  7.500E+00  4.27757E-03  3.92720E-20  1.40243E-03  0.00000E+00  1.0E-07
  7.600E+00  4.39223E-03  3.72940E-20  1.33179E-03  0.00000E+00  1.0E-07
  7.700E+00  4.50840E-03  3.54397E-20  1.26557E-03  0.00000E+00  1.0E-07
  7.800E+00  4.62608E-03  3.36999E-20  1.20345E-03  0.00000E+00  1.0E-07
  7.900E+00  4.74527E-03  3.20663E-20  1.14511E-03  0.00000E+00  1.0E-07
  8.000E+00  4.86597E-03  3.05310E-20  1.09028E-03  0.00000E+00  1.0E-07
  8.100E+00  4.98817E-03  2.90871E-20  1.03872E-03  0.00000E+00  1.0E-07
  8.200E+00  5.11188E-03  2.77280E-20  9.90186E-04  0.00000E+00  1.0E-07
  8.300E+00  5.23711E-03  2.64480E-20  9.44475E-04  0.00000E+00  1.0E-07
  8.400E+00  5.36383E-03  2.52415E-20  9.01389E-04  0.00000E+00  1.0E-07
  8.500E+00  5.49207E-03  2.41033E-20  8.60744E-04  0.00000E+00  1.0E-07
  8.600E+00  5.62181E-03  2.30290E-20  8.22381E-04  0.00000E+00  1.0E-07
  8.700E+00  5.75306E-03  2.20144E-20  7.86147E-04  0.00000E+00  1.0E-07
  8.800E+00  5.88581E-03  2.10554E-20  7.51901E-04  0.00000E+00  1.0E-07
  8.900E+00  6.02007E-03  2.01483E-20  7.19509E-04  0.00000E+00  1.0E-07
  9.000E+00  6.15583E-03  1.92899E-20  6.88856E-04  0.00000E+00  1.0E-07
  9.100E+00  6.29310E-03  1.84771E-20  6.59830E-04  0.00000E+00  1.0E-07
  9.200E+00  6.43187E-03  1.77070E-20  6.32329E-04  0.00000E+00  1.0E-07
  9.300E+00  6.57214E-03  1.69768E-20  6.06253E-04  0.00000E+00  1.0E-07
  9.400E+00  6.71392E-03  1.62842E-20  5.81519E-04  0.00000E+00  1.0E-07
  9.500E+00  6.85720E-03  1.56268E-20  5.58042E-04  0.00000E+00  1.0E-07
  9.600E+00  7.00198E-03  1.50025E-20  5.35748E-04  0.00000E+00  1.0E-07
  9.700E+00  7.14827E-03  1.44092E-20  5.14563E-04  0.00000E+00  1.0E-07
  9.800E+00  7.29605E-03  1.38453E-20  4.94424E-04  0.00000E+00  1.0E-07
  9.900E+00  7.44534E-03  1.33088E-20  4.75268E-04  0.00000E+00  1.0E-07
  1.000E+01  7.59612E-03  1.27984E-20  4.57038E-04  0.00000E+00  1.0E-07
  1.025E+01  7.97965E-03  1.16260E-20  4.15172E-04  0.00000E+00  1.0E-07
  1.050E+01  8.37255E-03  1.05859E-20  3.78028E-04  0.00000E+00  1.0E-07
  1.075E+01  8.77480E-03  9.66037E-21  3.44978E-04  0.00000E+00  1.0E-07
  1.100E+01  9.18641E-03  8.83464E-21  3.15491E-04  0.00000E+00  1.0E-07
  1.125E+01  9.60736E-03  8.09600E-21  2.89113E-04  0.00000E+00  1.0E-07
  1.150E+01  1.00376E-02  7.43361E-21  2.65459E-04  0.00000E+00  1.0E-07
  1.175E+01  1.04773E-02  6.83818E-21  2.44196E-04  0.00000E+00  1.0E-07
  1.200E+01  1.09262E-02  6.30172E-21  2.25038E-04  0.00000E+00  1.0E-07
  1.225E+01  1.13844E-02  5.81732E-21  2.07740E-04  0.00000E+00  1.0E-07
  1.250E+01  1.18520E-02  5.37902E-21  1.92088E-04  0.00000E+00  1.0E-07
  1.275E+01  1.23288E-02  4.98161E-21  1.77897E-04  0.00000E+00  1.0E-07
  1.300E+01  1.28150E-02  4.62060E-21  1.65005E-04  0.00000E+00  1.0E-07
  1.325E+01  1.33104E-02  4.29201E-21  1.53271E-04  0.00000E+00  1.0E-07
  1.350E+01  1.38150E-02  3.99244E-21  1.42573E-04  0.00000E+00  1.0E-07
  1.375E+01  1.43290E-02  3.71882E-21  1.32801E-04  0.00000E+00  1.0E-07
  1.400E+01  1.48521E-02  3.46848E-21  1.23862E-04  0.00000E+00  1.0E-07
  1.425E+01  1.53845E-02  3.23909E-21  1.15670E-04  0.00000E+00  1.0E-07
  1.450E+01  1.59262E-02  3.02856E-21  1.08152E-04  0.00000E+00  1.0E-07
  1.475E+01  1.64770E-02  2.83505E-21  1.01242E-04  0.00000E+00  1.0E-07
  1.500E+01  1.70371E-02  2.65693E-21  9.48806E-05  0.00000E+00  1.0E-07
  1.525E+01  1.76063E-02  2.49274E-21  8.90173E-05  0.00000E+00  1.0E-07
