 #
 # Subroutine ELSEPA. Elastic scattering of electrons and positrons
 #                    by neutral atoms and positive ions
 #
 # Projectile: electron
 # Kinetic energy = 3.70000E+06 eV = 1.35973E+05 a.u.
 #
 # WARNING: High-energy factorization with free-atom DF screening.
 #          Absorption, polarization and exchange corrections are
 #          switched off.
 #          Phase shifts are calculated for the bare nucleus.
 #          Scattering amplitudes are not evaluated.
 #
 # Element: Dy,  Z =  66,  atomic weight = 1.62500E+02 g/mol
 #
 # Nuclear model: Fermi distribution
 #                Average radius = 5.83895E-13 cm
 #                Skin thickness = 5.46000E-14 cm
 #
 # Number of electrons = 66
 #
 # Total elastic cross section = 7.23207E-18 cm**2 = 2.58262E-01 a0**2
 # 1st transport cross section = 3.94889E-22 cm**2 = 1.41017E-05 a0**2
 # 2nd transport cross section = 1.07547E-21 cm**2 = 3.84056E-05 a0**2
 #
 #
 # Differential cross section:                       MU=(1-COS(THETA))/2
 #
 #  THETA        MU          DCS          DCS        Sherman      error
 #  (deg)                 (cm**2/sr)   (a0**2/sr)    function
 #----------------------------------------------------------------------
  0.000E+00  0.00000E+00  1.38987E-12  4.96332E+04  0.00000E+00  1.0E-05
  1.000E-04  7.61557E-13  1.38986E-12  4.96328E+04  0.00000E+00  1.0E-05
  1.250E-04  1.18994E-12  1.38985E-12  4.96326E+04  0.00000E+00  1.0E-05
  1.500E-04  1.71346E-12  1.38985E-12  4.96323E+04  0.00000E+00  1.0E-05
  1.750E-04  2.33225E-12  1.38984E-12  4.96319E+04  0.00000E+00  1.0E-05
  2.000E-04  3.04617E-12  1.38983E-12  4.96316E+04  0.00000E+00  1.0E-05
  2.250E-04  3.85530E-12  1.38981E-12  4.96311E+04  0.00000E+00  1.0E-05
  2.500E-04  4.75964E-12  1.38980E-12  4.96307E+04  0.00000E+00  1.0E-05
  2.750E-04  5.75917E-12  1.38978E-12  4.96301E+04  0.00000E+00  1.0E-05
  3.000E-04  6.85391E-12  1.38977E-12  4.96295E+04  0.00000E+00  1.0E-05
  3.250E-04  8.04379E-12  1.38975E-12  4.96289E+04  0.00000E+00  1.0E-05
  3.500E-04  9.32893E-12  1.38973E-12  4.96282E+04  0.00000E+00  1.0E-05
  3.750E-04  1.07092E-11  1.38971E-12  4.96275E+04  0.00000E+00  1.0E-05
  4.000E-04  1.21847E-11  1.38969E-12  4.96267E+04  0.00000E+00  1.0E-05
  4.250E-04  1.37554E-11  1.38967E-12  4.96259E+04  0.00000E+00  1.0E-05
  4.500E-04  1.54213E-11  1.38964E-12  4.96250E+04  0.00000E+00  1.0E-05
  4.750E-04  1.71823E-11  1.38961E-12  4.96240E+04  0.00000E+00  1.0E-05
  5.000E-04  1.90386E-11  1.38959E-12  4.96231E+04  0.00000E+00  1.0E-05
  5.250E-04  2.09900E-11  1.38956E-12  4.96220E+04  0.00000E+00  1.0E-05
  5.500E-04  2.30367E-11  1.38953E-12  4.96209E+04  0.00000E+00  1.0E-05
  5.750E-04  2.51785E-11  1.38950E-12  4.96198E+04  0.00000E+00  1.0E-05
  6.000E-04  2.74156E-11  1.38946E-12  4.96186E+04  0.00000E+00  1.0E-05
  6.250E-04  2.97478E-11  1.38943E-12  4.96173E+04  0.00000E+00  1.0E-05
  6.500E-04  3.21752E-11  1.38939E-12  4.96160E+04  0.00000E+00  1.0E-05
  6.750E-04  3.46979E-11  1.38935E-12  4.96147E+04  0.00000E+00  1.0E-05
  7.000E-04  3.73157E-11  1.38931E-12  4.96133E+04  0.00000E+00  1.0E-05
  7.250E-04  4.00286E-11  1.38927E-12  4.96119E+04  0.00000E+00  1.0E-05
  7.500E-04  4.28368E-11  1.38923E-12  4.96104E+04  0.00000E+00  1.0E-05
  7.750E-04  4.57402E-11  1.38919E-12  4.96088E+04  0.00000E+00  1.0E-05
  8.000E-04  4.87388E-11  1.38914E-12  4.96072E+04  0.00000E+00  1.0E-05
  8.250E-04  5.18325E-11  1.38910E-12  4.96056E+04  0.00000E+00  1.0E-05
  8.500E-04  5.50215E-11  1.38905E-12  4.96039E+04  0.00000E+00  1.0E-05
  8.750E-04  5.83057E-11  1.38900E-12  4.96021E+04  0.00000E+00  1.0E-05
  9.000E-04  6.16850E-11  1.38895E-12  4.96003E+04  0.00000E+00  1.0E-05
  9.250E-04  6.51595E-11  1.38890E-12  4.95985E+04  0.00000E+00  1.0E-05
  9.500E-04  6.87293E-11  1.38885E-12  4.95966E+04  0.00000E+00  1.0E-05
  9.750E-04  7.23943E-11  1.38879E-12  4.95946E+04  0.00000E+00  1.0E-05
  1.000E-03  7.61544E-11  1.38873E-12  4.95926E+04  0.00000E+00  1.0E-05
  1.250E-03  1.18991E-10  1.38810E-12  4.95698E+04  0.00000E+00  1.0E-05
  1.500E-03  1.71347E-10  1.38732E-12  4.95419E+04  0.00000E+00  1.0E-05
  1.750E-03  2.33223E-10  1.38639E-12  4.95090E+04  0.00000E+00  1.0E-05
  2.000E-03  3.04617E-10  1.38533E-12  4.94711E+04  0.00000E+00  1.0E-05
  2.250E-03  3.85531E-10  1.38413E-12  4.94281E+04  0.00000E+00  1.0E-05
  2.500E-03  4.75965E-10  1.38279E-12  4.93802E+04  0.00000E+00  1.0E-05
  2.750E-03  5.75917E-10  1.38131E-12  4.93274E+04  0.00000E+00  1.0E-05
  3.000E-03  6.85389E-10  1.37969E-12  4.92696E+04  0.00000E+00  1.0E-05
  3.250E-03  8.04380E-10  1.37793E-12  4.92069E+04  0.00000E+00  1.0E-05
  3.500E-03  9.32891E-10  1.37604E-12  4.91393E+04  0.00000E+00  1.0E-05
  3.750E-03  1.07092E-09  1.37401E-12  4.90669E+04  0.00000E+00  1.0E-05
  4.000E-03  1.21847E-09  1.37185E-12  4.89897E+04  0.00000E+00  1.0E-05
  4.250E-03  1.37554E-09  1.36956E-12  4.89078E+04  0.00000E+00  1.0E-05
  4.500E-03  1.54213E-09  1.36713E-12  4.88211E+04  0.00000E+00  1.0E-05
  4.750E-03  1.71823E-09  1.36457E-12  4.87298E+04  0.00000E+00  1.0E-05
  5.000E-03  1.90386E-09  1.36188E-12  4.86338E+04  0.00000E+00  1.0E-05
  5.250E-03  2.09900E-09  1.35907E-12  4.85332E+04  0.00000E+00  1.0E-05
  5.500E-03  2.30367E-09  1.35613E-12  4.84281E+04  0.00000E+00  1.0E-05
  5.750E-03  2.51785E-09  1.35306E-12  4.83186E+04  0.00000E+00  1.0E-05
  6.000E-03  2.74156E-09  1.34987E-12  4.82046E+04  0.00000E+00  1.0E-05
  6.250E-03  2.97478E-09  1.34655E-12  4.80862E+04  0.00000E+00  1.0E-05
  6.500E-03  3.21752E-09  1.34312E-12  4.79635E+04  0.00000E+00  1.0E-05
  6.750E-03  3.46978E-09  1.33956E-12  4.78366E+04  0.00000E+00  1.0E-05
  7.000E-03  3.73156E-09  1.33589E-12  4.77055E+04  0.00000E+00  1.0E-05
  7.250E-03  4.00286E-09  1.33210E-12  4.75702E+04  0.00000E+00  1.0E-05
  7.500E-03  4.28368E-09  1.32820E-12  4.74309E+04  0.00000E+00  1.0E-05
  7.750E-03  4.57402E-09  1.32419E-12  4.72875E+04  0.00000E+00  1.0E-05
  8.000E-03  4.87388E-09  1.32006E-12  4.71403E+04  0.00000E+00  1.0E-05
  8.250E-03  5.18326E-09  1.31583E-12  4.69891E+04  0.00000E+00  1.0E-05
  8.500E-03  5.50215E-09  1.31149E-12  4.68342E+04  0.00000E+00  1.0E-05
  8.750E-03  5.83057E-09  1.30705E-12  4.66755E+04  0.00000E+00  1.0E-05
  9.000E-03  6.16850E-09  1.30250E-12  4.65132E+04  0.00000E+00  1.0E-05
  9.250E-03  6.51596E-09  1.29786E-12  4.63473E+04  0.00000E+00  1.0E-05
  9.500E-03  6.87293E-09  1.29311E-12  4.61779E+04  0.00000E+00  1.0E-05
  9.750E-03  7.23942E-09  1.28827E-12  4.60051E+04  0.00000E+00  1.0E-05
  1.000E-02  7.61544E-09  1.28334E-12  4.58289E+04  0.00000E+00  1.0E-05
  1.250E-02  1.18991E-08  1.22932E-12  4.38999E+04  0.00000E+00  1.0E-05
  1.500E-02  1.71347E-08  1.16858E-12  4.17308E+04  0.00000E+00  1.0E-05
  1.750E-02  2.33223E-08  1.10305E-12  3.93907E+04  0.00000E+00  1.0E-05
  2.000E-02  3.04617E-08  1.03492E-12  3.69576E+04  0.00000E+00  1.0E-05
  2.250E-02  3.85531E-08  9.66408E-13  3.45110E+04  0.00000E+00  1.0E-05
  2.500E-02  4.75965E-08  8.99068E-13  3.21063E+04  0.00000E+00  1.0E-05
  2.750E-02  5.75917E-08  8.33915E-13  2.97797E+04  0.00000E+00  1.0E-05
  3.000E-02  6.85389E-08  7.71854E-13  2.75634E+04  0.00000E+00  1.0E-05
  3.250E-02  8.04380E-08  7.13731E-13  2.54878E+04  0.00000E+00  1.0E-05
  3.500E-02  9.32891E-08  6.59958E-13  2.35675E+04  0.00000E+00  1.0E-05
  3.750E-02  1.07092E-07  6.10325E-13  2.17951E+04  0.00000E+00  1.0E-05
  4.000E-02  1.21847E-07  5.64817E-13  2.01700E+04  0.00000E+00  1.0E-05
  4.250E-02  1.37554E-07  5.23386E-13  1.86905E+04  0.00000E+00  1.0E-05
  4.500E-02  1.54213E-07  4.85958E-13  1.73539E+04  0.00000E+00  1.0E-05
  4.750E-02  1.71823E-07  4.51960E-13  1.61398E+04  0.00000E+00  1.0E-05
  5.000E-02  1.90386E-07  4.21124E-13  1.50386E+04  0.00000E+00  1.0E-05
  5.250E-02  2.09900E-07  3.93183E-13  1.40408E+04  0.00000E+00  1.0E-05
  5.500E-02  2.30367E-07  3.67968E-13  1.31404E+04  0.00000E+00  1.0E-05
  5.750E-02  2.51785E-07  3.45030E-13  1.23213E+04  0.00000E+00  1.0E-05
  6.000E-02  2.74156E-07  3.24142E-13  1.15753E+04  0.00000E+00  1.0E-05
  6.250E-02  2.97478E-07  3.05092E-13  1.08950E+04  0.00000E+00  1.0E-05
  6.500E-02  3.21752E-07  2.87688E-13  1.02735E+04  0.00000E+00  1.0E-05
  6.750E-02  3.46978E-07  2.71711E-13  9.70299E+03  0.00000E+00  1.0E-05
  7.000E-02  3.73156E-07  2.57012E-13  9.17808E+03  0.00000E+00  1.0E-05
  7.250E-02  4.00286E-07  2.43460E-13  8.69410E+03  0.00000E+00  1.0E-05
  7.500E-02  4.28368E-07  2.30904E-13  8.24573E+03  0.00000E+00  1.0E-05
  7.750E-02  4.57402E-07  2.19237E-13  7.82910E+03  0.00000E+00  1.0E-05
  8.000E-02  4.87388E-07  2.08387E-13  7.44164E+03  0.00000E+00  1.0E-05
  8.250E-02  5.18325E-07  1.98277E-13  7.08059E+03  0.00000E+00  1.0E-05
  8.500E-02  5.50215E-07  1.88809E-13  6.74249E+03  0.00000E+00  1.0E-05
  8.750E-02  5.83057E-07  1.79910E-13  6.42469E+03  0.00000E+00  1.0E-05
  9.000E-02  6.16850E-07  1.71563E-13  6.12661E+03  0.00000E+00  1.0E-05
  9.250E-02  6.51596E-07  1.63721E-13  5.84659E+03  0.00000E+00  1.0E-05
  9.500E-02  6.87293E-07  1.56330E-13  5.58263E+03  0.00000E+00  1.0E-05
  9.750E-02  7.23942E-07  1.49318E-13  5.33224E+03  0.00000E+00  1.0E-05
  1.000E-01  7.61543E-07  1.42703E-13  5.09601E+03  0.00000E+00  1.0E-05
  1.250E-01  1.18991E-06  9.26569E-14  3.30884E+03  0.00000E+00  1.0E-05
  1.500E-01  1.71347E-06  6.12097E-14  2.18584E+03  0.00000E+00  1.0E-05
  1.750E-01  2.33223E-06  4.24335E-14  1.51533E+03  0.00000E+00  1.0E-05
  2.000E-01  3.04617E-06  3.03002E-14  1.08204E+03  0.00000E+00  1.0E-05
  2.250E-01  3.85531E-06  2.20728E-14  7.88233E+02  0.00000E+00  1.0E-05
  2.500E-01  4.75964E-06  1.64379E-14  5.87009E+02  0.00000E+00  1.0E-05
  2.750E-01  5.75916E-06  1.25049E-14  4.46558E+02  0.00000E+00  1.0E-05
  3.000E-01  6.85388E-06  9.67654E-15  3.45556E+02  0.00000E+00  1.0E-05
  3.250E-01  8.04378E-06  7.57604E-15  2.70545E+02  0.00000E+00  1.0E-05
  3.500E-01  9.32888E-06  5.99162E-15  2.13965E+02  0.00000E+00  1.0E-05
  3.750E-01  1.07092E-05  4.79583E-15  1.71262E+02  0.00000E+00  1.0E-05
  4.000E-01  1.21846E-05  3.87947E-15  1.38538E+02  0.00000E+00  1.0E-05
  4.250E-01  1.37553E-05  3.16687E-15  1.13091E+02  0.00000E+00  1.0E-05
  4.500E-01  1.54212E-05  2.60575E-15  9.30531E+01  0.00000E+00  1.0E-05
  4.750E-01  1.71822E-05  2.16431E-15  7.72889E+01  0.00000E+00  1.0E-05
  5.000E-01  1.90385E-05  1.81240E-15  6.47219E+01  0.00000E+00  1.0E-05
  5.250E-01  2.09899E-05  1.53154E-15  5.46924E+01  0.00000E+00  1.0E-05
  5.500E-01  2.30365E-05  1.30294E-15  4.65288E+01  0.00000E+00  1.0E-05
  5.750E-01  2.51783E-05  1.11631E-15  3.98641E+01  0.00000E+00  1.0E-05
  6.000E-01  2.74153E-05  9.62639E-16  3.43765E+01  0.00000E+00  1.0E-05
  6.250E-01  2.97475E-05  8.35199E-16  2.98255E+01  0.00000E+00  1.0E-05
  6.500E-01  3.21749E-05  7.28751E-16  2.60242E+01  0.00000E+00  1.0E-05
  6.750E-01  3.46974E-05  6.38881E-16  2.28149E+01  0.00000E+00  1.0E-05
  7.000E-01  3.73152E-05  5.62814E-16  2.00985E+01  0.00000E+00  1.0E-05
  7.250E-01  4.00281E-05  4.98125E-16  1.77884E+01  0.00000E+00  1.0E-05
  7.500E-01  4.28362E-05  4.42655E-16  1.58075E+01  0.00000E+00  1.0E-05
  7.750E-01  4.57395E-05  3.94832E-16  1.40997E+01  0.00000E+00  1.0E-05
  8.000E-01  4.87380E-05  3.53414E-16  1.26207E+01  0.00000E+00  1.0E-05
  8.250E-01  5.18317E-05  3.17356E-16  1.13330E+01  0.00000E+00  1.0E-05
  8.500E-01  5.50205E-05  2.85761E-16  1.02047E+01  0.00000E+00  1.0E-05
  8.750E-01  5.83045E-05  2.57949E-16  9.21153E+00  0.00000E+00  1.0E-05
  9.000E-01  6.16838E-05  2.33446E-16  8.33651E+00  0.00000E+00  1.0E-05
  9.250E-01  6.51582E-05  2.11786E-16  7.56300E+00  0.00000E+00  1.0E-05
  9.500E-01  6.87277E-05  1.92561E-16  6.87646E+00  0.00000E+00  1.0E-05
  9.750E-01  7.23925E-05  1.75420E-16  6.26437E+00  0.00000E+00  1.0E-05
  1.000E+00  7.61524E-05  1.60145E-16  5.71888E+00  0.00000E+00  7.7E-06
  1.100E+00  9.21439E-05  1.13337E-16  4.04733E+00  0.00000E+00  5.8E-06
  1.200E+00  1.09658E-04  8.23655E-17  2.94133E+00  0.00000E+00  3.2E-06
  1.300E+00  1.28695E-04  6.12324E-17  2.18665E+00  0.00000E+00  6.3E-07
  1.400E+00  1.49255E-04  4.64136E-17  1.65746E+00  0.00000E+00  1.2E-06
  1.500E+00  1.71338E-04  3.58471E-17  1.28012E+00  0.00000E+00  2.2E-06
  1.600E+00  1.94942E-04  2.81320E-17  1.00461E+00  0.00000E+00  2.4E-06
  1.700E+00  2.20070E-04  2.23872E-17  7.99461E-01  0.00000E+00  1.9E-06
  1.800E+00  2.46720E-04  1.80353E-17  6.44052E-01  0.00000E+00  1.1E-06
  1.900E+00  2.74892E-04  1.46968E-17  5.24833E-01  0.00000E+00  1.7E-07
  2.000E+00  3.04586E-04  1.21002E-17  4.32105E-01  0.00000E+00  5.7E-07
  2.100E+00  3.35803E-04  1.00551E-17  3.59074E-01  0.00000E+00  1.0E-06
  2.200E+00  3.68542E-04  8.42298E-18  3.00790E-01  0.00000E+00  1.1E-06
  2.300E+00  4.02802E-04  7.11063E-18  2.53925E-01  0.00000E+00  8.8E-07
  2.400E+00  4.38585E-04  6.04531E-18  2.15882E-01  0.00000E+00  4.9E-07
  2.500E+00  4.75889E-04  5.17303E-18  1.84732E-01  0.00000E+00  1.0E-07
  2.600E+00  5.14715E-04  4.45206E-18  1.58986E-01  0.00000E+00  3.3E-07
  2.700E+00  5.55063E-04  3.85276E-18  1.37585E-01  0.00000E+00  5.5E-07
  2.800E+00  5.96931E-04  3.35134E-18  1.19678E-01  0.00000E+00  5.9E-07
  2.900E+00  6.40321E-04  2.92911E-18  1.04601E-01  0.00000E+00  4.8E-07
  3.000E+00  6.85233E-04  2.57120E-18  9.18192E-02  0.00000E+00  2.6E-07
  3.100E+00  7.31665E-04  2.26633E-18  8.09320E-02  0.00000E+00  1.0E-07
  3.200E+00  7.79618E-04  2.00545E-18  7.16158E-02  0.00000E+00  2.1E-07
  3.300E+00  8.29092E-04  1.78113E-18  6.36052E-02  0.00000E+00  3.4E-07
  3.400E+00  8.80086E-04  1.58728E-18  5.66829E-02  0.00000E+00  3.6E-07
  3.500E+00  9.32601E-04  1.41907E-18  5.06758E-02  0.00000E+00  2.9E-07
  3.600E+00  9.86636E-04  1.27261E-18  4.54456E-02  0.00000E+00  1.5E-07
  3.700E+00  1.04219E-03  1.14460E-18  4.08745E-02  0.00000E+00  1.0E-07
  3.800E+00  1.09927E-03  1.03230E-18  3.68642E-02  0.00000E+00  1.5E-07
  3.900E+00  1.15786E-03  9.33415E-19  3.33328E-02  0.00000E+00  2.3E-07
  4.000E+00  1.21797E-03  8.46120E-19  3.02155E-02  0.00000E+00  2.4E-07
  4.100E+00  1.27961E-03  7.68821E-19  2.74551E-02  0.00000E+00  1.9E-07
  4.200E+00  1.34276E-03  7.00170E-19  2.50035E-02  0.00000E+00  1.0E-07
  4.300E+00  1.40743E-03  6.38997E-19  2.28190E-02  0.00000E+00  1.0E-07
  4.400E+00  1.47362E-03  5.84383E-19  2.08687E-02  0.00000E+00  1.1E-07
  4.500E+00  1.54133E-03  5.35500E-19  1.91230E-02  0.00000E+00  1.6E-07
  4.600E+00  1.61056E-03  4.91639E-19  1.75567E-02  0.00000E+00  1.7E-07
  4.700E+00  1.68131E-03  4.52177E-19  1.61475E-02  0.00000E+00  1.3E-07
  4.800E+00  1.75357E-03  4.16609E-19  1.48774E-02  0.00000E+00  1.0E-07
  4.900E+00  1.82735E-03  3.84485E-19  1.37302E-02  0.00000E+00  1.0E-07
  5.000E+00  1.90265E-03  3.55411E-19  1.26919E-02  0.00000E+00  1.0E-07
  5.100E+00  1.97947E-03  3.29039E-19  1.17502E-02  0.00000E+00  1.2E-07
  5.200E+00  2.05780E-03  3.05076E-19  1.08945E-02  0.00000E+00  1.2E-07
  5.300E+00  2.13765E-03  2.83267E-19  1.01156E-02  0.00000E+00  1.0E-07
  5.400E+00  2.21902E-03  2.63382E-19  9.40553E-03  0.00000E+00  1.0E-07
  5.500E+00  2.30190E-03  2.45218E-19  8.75688E-03  0.00000E+00  1.0E-07
  5.600E+00  2.38630E-03  2.28599E-19  8.16340E-03  0.00000E+00  1.0E-07
  5.700E+00  2.47222E-03  2.13372E-19  7.61965E-03  0.00000E+00  1.0E-07
  5.800E+00  2.55965E-03  1.99400E-19  7.12070E-03  0.00000E+00  1.0E-07
  5.900E+00  2.64859E-03  1.86559E-19  6.66214E-03  0.00000E+00  1.0E-07
  6.000E+00  2.73905E-03  1.74739E-19  6.24005E-03  0.00000E+00  1.0E-07
  6.100E+00  2.83103E-03  1.63847E-19  5.85109E-03  0.00000E+00  1.0E-07
  6.200E+00  2.92452E-03  1.53796E-19  5.49217E-03  0.00000E+00  1.0E-07
  6.300E+00  3.01952E-03  1.44510E-19  5.16053E-03  0.00000E+00  1.0E-07
  6.400E+00  3.11604E-03  1.35916E-19  4.85366E-03  0.00000E+00  1.0E-07
  6.500E+00  3.21407E-03  1.27957E-19  4.56944E-03  0.00000E+00  1.0E-07
  6.600E+00  3.31362E-03  1.20577E-19  4.30587E-03  0.00000E+00  1.0E-07
  6.700E+00  3.41468E-03  1.13724E-19  4.06117E-03  0.00000E+00  1.0E-07
  6.800E+00  3.51725E-03  1.07355E-19  3.83371E-03  0.00000E+00  1.0E-07
  6.900E+00  3.62133E-03  1.01428E-19  3.62207E-03  0.00000E+00  1.0E-07
  7.000E+00  3.72692E-03  9.59086E-20  3.42496E-03  0.00000E+00  1.0E-07
  7.100E+00  3.83403E-03  9.07623E-20  3.24118E-03  0.00000E+00  1.0E-07
  7.200E+00  3.94265E-03  8.59588E-20  3.06965E-03  0.00000E+00  1.0E-07
  7.300E+00  4.05278E-03  8.14715E-20  2.90940E-03  0.00000E+00  1.0E-07
  7.400E+00  4.16442E-03  7.72758E-20  2.75957E-03  0.00000E+00  1.0E-07
  7.500E+00  4.27757E-03  7.33490E-20  2.61934E-03  0.00000E+00  1.0E-07
  7.600E+00  4.39223E-03  6.96704E-20  2.48798E-03  0.00000E+00  1.0E-07
  7.700E+00  4.50840E-03  6.62215E-20  2.36481E-03  0.00000E+00  1.0E-07
  7.800E+00  4.62608E-03  6.29853E-20  2.24925E-03  0.00000E+00  1.0E-07
  7.900E+00  4.74527E-03  5.99463E-20  2.14072E-03  0.00000E+00  1.0E-07
  8.000E+00  4.86597E-03  5.70899E-20  2.03872E-03  0.00000E+00  1.0E-07
  8.100E+00  4.98817E-03  5.44031E-20  1.94277E-03  0.00000E+00  1.0E-07
  8.200E+00  5.11188E-03  5.18741E-20  1.85246E-03  0.00000E+00  1.0E-07
  8.300E+00  5.23711E-03  4.94918E-20  1.76738E-03  0.00000E+00  1.0E-07
  8.400E+00  5.36383E-03  4.72460E-20  1.68718E-03  0.00000E+00  1.0E-07
  8.500E+00  5.49207E-03  4.51272E-20  1.61152E-03  0.00000E+00  1.0E-07
  8.600E+00  5.62181E-03  4.31271E-20  1.54010E-03  0.00000E+00  1.0E-07
  8.700E+00  5.75306E-03  4.12378E-20  1.47263E-03  0.00000E+00  1.0E-07
  8.800E+00  5.88581E-03  3.94519E-20  1.40885E-03  0.00000E+00  1.0E-07
  8.900E+00  6.02007E-03  3.77625E-20  1.34852E-03  0.00000E+00  1.0E-07
  9.000E+00  6.15583E-03  3.61635E-20  1.29142E-03  0.00000E+00  1.0E-07
  9.100E+00  6.29310E-03  3.46492E-20  1.23735E-03  0.00000E+00  1.0E-07
  9.200E+00  6.43187E-03  3.32143E-20  1.18610E-03  0.00000E+00  1.0E-07
  9.300E+00  6.57214E-03  3.18536E-20  1.13751E-03  0.00000E+00  1.0E-07
  9.400E+00  6.71392E-03  3.05626E-20  1.09141E-03  0.00000E+00  1.0E-07
  9.500E+00  6.85720E-03  2.93371E-20  1.04765E-03  0.00000E+00  1.0E-07
  9.600E+00  7.00198E-03  2.81732E-20  1.00608E-03  0.00000E+00  1.0E-07
  9.700E+00  7.14827E-03  2.70670E-20  9.66582E-04  0.00000E+00  1.0E-07
  9.800E+00  7.29605E-03  2.60152E-20  9.29021E-04  0.00000E+00  1.0E-07
  9.900E+00  7.44534E-03  2.50147E-20  8.93289E-04  0.00000E+00  1.0E-07
  1.000E+01  7.59612E-03  2.40623E-20  8.59282E-04  0.00000E+00  1.0E-07
  1.025E+01  7.97965E-03  2.18746E-20  7.81157E-04  0.00000E+00  1.0E-07
  1.050E+01  8.37255E-03  1.99328E-20  7.11813E-04  0.00000E+00  1.0E-07
  1.075E+01  8.77480E-03  1.82043E-20  6.50086E-04  0.00000E+00  1.0E-07
  1.100E+01  9.18641E-03  1.66614E-20  5.94988E-04  0.00000E+00  1.0E-07
  1.125E+01  9.60736E-03  1.52806E-20  5.45679E-04  0.00000E+00  1.0E-07
  1.150E+01  1.00376E-02  1.40417E-20  5.01439E-04  0.00000E+00  1.0E-07
  1.175E+01  1.04773E-02  1.29276E-20  4.61653E-04  0.00000E+00  1.0E-07
  1.200E+01  1.09262E-02  1.19233E-20  4.25789E-04  0.00000E+00  1.0E-07
  1.225E+01  1.13844E-02  1.10160E-20  3.93390E-04  0.00000E+00  1.0E-07
  1.250E+01  1.18520E-02  1.01947E-20  3.64059E-04  0.00000E+00  1.0E-07
  1.275E+01  1.23288E-02  9.44962E-21  3.37452E-04  0.00000E+00  1.0E-07
  1.300E+01  1.28150E-02  8.77242E-21  3.13269E-04  0.00000E+00  1.0E-07
  1.325E+01  1.33104E-02  8.15571E-21  2.91246E-04  0.00000E+00  1.0E-07
  1.350E+01  1.38150E-02  7.59318E-21  2.71157E-04  0.00000E+00  1.0E-07
  1.375E+01  1.43290E-02  7.07909E-21  2.52799E-04  0.00000E+00  1.0E-07
  1.400E+01  1.48521E-02  6.60850E-21  2.35994E-04  0.00000E+00  1.0E-07
  1.425E+01  1.53845E-02  6.17706E-21  2.20587E-04  0.00000E+00  1.0E-07
  1.450E+01  1.59262E-02  5.78089E-21  2.06439E-04  0.00000E+00  1.0E-07
  1.475E+01  1.64770E-02  5.41654E-21  1.93428E-04  0.00000E+00  1.0E-07
  1.500E+01  1.70371E-02  5.08096E-21  1.81444E-04  0.00000E+00  1.0E-07
  1.525E+01  1.76063E-02  4.77146E-21  1.70392E-04  0.00000E+00  1.0E-07
