 #
 # Subroutine ELSEPA. Elastic scattering of electrons and positrons
 #                    by neutral atoms and positive ions
 #
 # Projectile: electron
 # Kinetic energy = 3.70000E+06 eV = 1.35973E+05 a.u.
 #
 # WARNING: High-energy factorization with free-atom DF screening.
 #          Absorption, polarization and exchange corrections are
 #          switched off.
 #          Phase shifts are calculated for the bare nucleus.
 #          Scattering amplitudes are not evaluated.
 #
 # Element: Ga,  Z =  31,  atomic weight = 6.97230E+01 g/mol
 #
 # Nuclear model: Fermi distribution
 #                Average radius = 4.40395E-13 cm
 #                Skin thickness = 5.46000E-14 cm
 #
 # Number of electrons = 31
 #
 # Total elastic cross section = 2.21625E-18 cm**2 = 7.91437E-02 a0**2
 # 1st transport cross section = 8.29739E-23 cm**2 = 2.96305E-06 a0**2
 # 2nd transport cross section = 2.34075E-22 cm**2 = 8.35896E-06 a0**2
 #
 #
 # Differential cross section:                       MU=(1-COS(THETA))/2
 #
 #  THETA        MU          DCS          DCS        Sherman      error
 #  (deg)                 (cm**2/sr)   (a0**2/sr)    function
 #----------------------------------------------------------------------
  0.000E+00  0.00000E+00  3.42407E-13  1.22276E+04  0.00000E+00  1.0E-05
  1.000E-04  7.61557E-13  3.42405E-13  1.22275E+04  0.00000E+00  1.0E-05
  1.250E-04  1.18994E-12  3.42404E-13  1.22275E+04  0.00000E+00  1.0E-05
  1.500E-04  1.71346E-12  3.42403E-13  1.22274E+04  0.00000E+00  1.0E-05
  1.750E-04  2.33225E-12  3.42402E-13  1.22274E+04  0.00000E+00  1.0E-05
  2.000E-04  3.04617E-12  3.42400E-13  1.22273E+04  0.00000E+00  1.0E-05
  2.250E-04  3.85530E-12  3.42398E-13  1.22273E+04  0.00000E+00  1.0E-05
  2.500E-04  4.75964E-12  3.42396E-13  1.22272E+04  0.00000E+00  1.0E-05
  2.750E-04  5.75917E-12  3.42394E-13  1.22271E+04  0.00000E+00  1.0E-05
  3.000E-04  6.85391E-12  3.42391E-13  1.22270E+04  0.00000E+00  1.0E-05
  3.250E-04  8.04379E-12  3.42388E-13  1.22269E+04  0.00000E+00  1.0E-05
  3.500E-04  9.32893E-12  3.42385E-13  1.22268E+04  0.00000E+00  1.0E-05
  3.750E-04  1.07092E-11  3.42382E-13  1.22267E+04  0.00000E+00  1.0E-05
  4.000E-04  1.21847E-11  3.42379E-13  1.22266E+04  0.00000E+00  1.0E-05
  4.250E-04  1.37554E-11  3.42375E-13  1.22264E+04  0.00000E+00  1.0E-05
  4.500E-04  1.54213E-11  3.42371E-13  1.22263E+04  0.00000E+00  1.0E-05
  4.750E-04  1.71823E-11  3.42367E-13  1.22261E+04  0.00000E+00  1.0E-05
  5.000E-04  1.90386E-11  3.42363E-13  1.22260E+04  0.00000E+00  1.0E-05
  5.250E-04  2.09900E-11  3.42358E-13  1.22258E+04  0.00000E+00  1.0E-05
  5.500E-04  2.30367E-11  3.42353E-13  1.22257E+04  0.00000E+00  1.0E-05
  5.750E-04  2.51785E-11  3.42348E-13  1.22255E+04  0.00000E+00  1.0E-05
  6.000E-04  2.74156E-11  3.42343E-13  1.22253E+04  0.00000E+00  1.0E-05
  6.250E-04  2.97478E-11  3.42338E-13  1.22251E+04  0.00000E+00  1.0E-05
  6.500E-04  3.21752E-11  3.42332E-13  1.22249E+04  0.00000E+00  1.0E-05
  6.750E-04  3.46979E-11  3.42326E-13  1.22247E+04  0.00000E+00  1.0E-05
  7.000E-04  3.73157E-11  3.42320E-13  1.22245E+04  0.00000E+00  1.0E-05
  7.250E-04  4.00286E-11  3.42314E-13  1.22242E+04  0.00000E+00  1.0E-05
  7.500E-04  4.28368E-11  3.42307E-13  1.22240E+04  0.00000E+00  1.0E-05
  7.750E-04  4.57402E-11  3.42300E-13  1.22238E+04  0.00000E+00  1.0E-05
  8.000E-04  4.87388E-11  3.42293E-13  1.22235E+04  0.00000E+00  1.0E-05
  8.250E-04  5.18325E-11  3.42286E-13  1.22233E+04  0.00000E+00  1.0E-05
  8.500E-04  5.50215E-11  3.42279E-13  1.22230E+04  0.00000E+00  1.0E-05
  8.750E-04  5.83057E-11  3.42271E-13  1.22227E+04  0.00000E+00  1.0E-05
  9.000E-04  6.16850E-11  3.42263E-13  1.22224E+04  0.00000E+00  1.0E-05
  9.250E-04  6.51595E-11  3.42255E-13  1.22221E+04  0.00000E+00  1.0E-05
  9.500E-04  6.87293E-11  3.42246E-13  1.22218E+04  0.00000E+00  1.0E-05
  9.750E-04  7.23943E-11  3.42238E-13  1.22215E+04  0.00000E+00  1.0E-05
  1.000E-03  7.61544E-11  3.42229E-13  1.22212E+04  0.00000E+00  1.0E-05
  1.250E-03  1.18991E-10  3.42129E-13  1.22176E+04  0.00000E+00  1.0E-05
  1.500E-03  1.71347E-10  3.42006E-13  1.22133E+04  0.00000E+00  1.0E-05
  1.750E-03  2.33223E-10  3.41862E-13  1.22081E+04  0.00000E+00  1.0E-05
  2.000E-03  3.04617E-10  3.41695E-13  1.22022E+04  0.00000E+00  1.0E-05
  2.250E-03  3.85531E-10  3.41506E-13  1.21954E+04  0.00000E+00  1.0E-05
  2.500E-03  4.75965E-10  3.41295E-13  1.21879E+04  0.00000E+00  1.0E-05
  2.750E-03  5.75917E-10  3.41063E-13  1.21796E+04  0.00000E+00  1.0E-05
  3.000E-03  6.85389E-10  3.40808E-13  1.21705E+04  0.00000E+00  1.0E-05
  3.250E-03  8.04380E-10  3.40532E-13  1.21606E+04  0.00000E+00  1.0E-05
  3.500E-03  9.32891E-10  3.40233E-13  1.21500E+04  0.00000E+00  1.0E-05
  3.750E-03  1.07092E-09  3.39914E-13  1.21385E+04  0.00000E+00  1.0E-05
  4.000E-03  1.21847E-09  3.39572E-13  1.21264E+04  0.00000E+00  1.0E-05
  4.250E-03  1.37554E-09  3.39210E-13  1.21134E+04  0.00000E+00  1.0E-05
  4.500E-03  1.54213E-09  3.38826E-13  1.20997E+04  0.00000E+00  1.0E-05
  4.750E-03  1.71823E-09  3.38421E-13  1.20852E+04  0.00000E+00  1.0E-05
  5.000E-03  1.90386E-09  3.37995E-13  1.20700E+04  0.00000E+00  1.0E-05
  5.250E-03  2.09900E-09  3.37548E-13  1.20541E+04  0.00000E+00  1.0E-05
  5.500E-03  2.30367E-09  3.37081E-13  1.20374E+04  0.00000E+00  1.0E-05
  5.750E-03  2.51785E-09  3.36592E-13  1.20199E+04  0.00000E+00  1.0E-05
  6.000E-03  2.74156E-09  3.36084E-13  1.20018E+04  0.00000E+00  1.0E-05
  6.250E-03  2.97478E-09  3.35555E-13  1.19829E+04  0.00000E+00  1.0E-05
  6.500E-03  3.21752E-09  3.35006E-13  1.19633E+04  0.00000E+00  1.0E-05
  6.750E-03  3.46978E-09  3.34437E-13  1.19430E+04  0.00000E+00  1.0E-05
  7.000E-03  3.73156E-09  3.33849E-13  1.19220E+04  0.00000E+00  1.0E-05
  7.250E-03  4.00286E-09  3.33241E-13  1.19002E+04  0.00000E+00  1.0E-05
  7.500E-03  4.28368E-09  3.32613E-13  1.18778E+04  0.00000E+00  1.0E-05
  7.750E-03  4.57402E-09  3.31967E-13  1.18547E+04  0.00000E+00  1.0E-05
  8.000E-03  4.87388E-09  3.31301E-13  1.18310E+04  0.00000E+00  1.0E-05
  8.250E-03  5.18326E-09  3.30617E-13  1.18065E+04  0.00000E+00  1.0E-05
  8.500E-03  5.50215E-09  3.29914E-13  1.17814E+04  0.00000E+00  1.0E-05
  8.750E-03  5.83057E-09  3.29193E-13  1.17557E+04  0.00000E+00  1.0E-05
  9.000E-03  6.16850E-09  3.28454E-13  1.17293E+04  0.00000E+00  1.0E-05
  9.250E-03  6.51596E-09  3.27697E-13  1.17023E+04  0.00000E+00  1.0E-05
  9.500E-03  6.87293E-09  3.26922E-13  1.16746E+04  0.00000E+00  1.0E-05
  9.750E-03  7.23942E-09  3.26130E-13  1.16463E+04  0.00000E+00  1.0E-05
  1.000E-02  7.61544E-09  3.25320E-13  1.16174E+04  0.00000E+00  1.0E-05
  1.250E-02  1.18991E-08  3.16338E-13  1.12966E+04  0.00000E+00  1.0E-05
  1.500E-02  1.71347E-08  3.05903E-13  1.09240E+04  0.00000E+00  1.0E-05
  1.750E-02  2.33223E-08  2.94330E-13  1.05107E+04  0.00000E+00  1.0E-05
  2.000E-02  3.04617E-08  2.81902E-13  1.00669E+04  0.00000E+00  1.0E-05
  2.250E-02  3.85531E-08  2.68859E-13  9.60114E+03  0.00000E+00  1.0E-05
  2.500E-02  4.75965E-08  2.55464E-13  9.12280E+03  0.00000E+00  1.0E-05
  2.750E-02  5.75917E-08  2.41973E-13  8.64100E+03  0.00000E+00  1.0E-05
  3.000E-02  6.85389E-08  2.28583E-13  8.16284E+03  0.00000E+00  1.0E-05
  3.250E-02  8.04380E-08  2.15431E-13  7.69317E+03  0.00000E+00  1.0E-05
  3.500E-02  9.32891E-08  2.02635E-13  7.23622E+03  0.00000E+00  1.0E-05
  3.750E-02  1.07092E-07  1.90333E-13  6.79693E+03  0.00000E+00  1.0E-05
  4.000E-02  1.21847E-07  1.78596E-13  6.37776E+03  0.00000E+00  1.0E-05
  4.250E-02  1.37554E-07  1.67454E-13  5.97988E+03  0.00000E+00  1.0E-05
  4.500E-02  1.54213E-07  1.56904E-13  5.60316E+03  0.00000E+00  1.0E-05
  4.750E-02  1.71823E-07  1.47000E-13  5.24947E+03  0.00000E+00  1.0E-05
  5.000E-02  1.90386E-07  1.37734E-13  4.91858E+03  0.00000E+00  1.0E-05
  5.250E-02  2.09900E-07  1.29089E-13  4.60987E+03  0.00000E+00  1.0E-05
  5.500E-02  2.30367E-07  1.21007E-13  4.32122E+03  0.00000E+00  1.0E-05
  5.750E-02  2.51785E-07  1.13500E-13  4.05315E+03  0.00000E+00  1.0E-05
  6.000E-02  2.74156E-07  1.06536E-13  3.80448E+03  0.00000E+00  1.0E-05
  6.250E-02  2.97478E-07  1.00083E-13  3.57403E+03  0.00000E+00  1.0E-05
  6.500E-02  3.21752E-07  9.40841E-14  3.35981E+03  0.00000E+00  1.0E-05
  6.750E-02  3.46978E-07  8.85268E-14  3.16135E+03  0.00000E+00  1.0E-05
  7.000E-02  3.73156E-07  8.33831E-14  2.97766E+03  0.00000E+00  1.0E-05
  7.250E-02  4.00286E-07  7.86210E-14  2.80761E+03  0.00000E+00  1.0E-05
  7.500E-02  4.28368E-07  7.41988E-14  2.64969E+03  0.00000E+00  1.0E-05
  7.750E-02  4.57402E-07  7.00951E-14  2.50314E+03  0.00000E+00  1.0E-05
  8.000E-02  4.87388E-07  6.62911E-14  2.36730E+03  0.00000E+00  1.0E-05
  8.250E-02  5.18325E-07  6.27621E-14  2.24128E+03  0.00000E+00  1.0E-05
  8.500E-02  5.50215E-07  5.94791E-14  2.12404E+03  0.00000E+00  1.0E-05
  8.750E-02  5.83057E-07  5.64202E-14  2.01480E+03  0.00000E+00  1.0E-05
  9.000E-02  6.16850E-07  5.35749E-14  1.91319E+03  0.00000E+00  1.0E-05
  9.250E-02  6.51596E-07  5.09254E-14  1.81858E+03  0.00000E+00  1.0E-05
  9.500E-02  6.87293E-07  4.84529E-14  1.73028E+03  0.00000E+00  1.0E-05
  9.750E-02  7.23942E-07  4.61367E-14  1.64757E+03  0.00000E+00  1.0E-05
  1.000E-01  7.61543E-07  4.39729E-14  1.57030E+03  0.00000E+00  1.0E-05
  1.250E-01  1.18991E-06  2.83764E-14  1.01334E+03  0.00000E+00  1.0E-05
  1.500E-01  1.71347E-06  1.91391E-14  6.83469E+02  0.00000E+00  1.0E-05
  1.750E-01  2.33223E-06  1.35545E-14  4.84039E+02  0.00000E+00  1.0E-05
  2.000E-01  3.04617E-06  9.85366E-15  3.51880E+02  0.00000E+00  1.0E-05
  2.250E-01  3.85531E-06  7.22102E-15  2.57867E+02  0.00000E+00  1.0E-05
  2.500E-01  4.75964E-06  5.35503E-15  1.91232E+02  0.00000E+00  1.0E-05
  2.750E-01  5.75916E-06  4.03187E-15  1.43981E+02  0.00000E+00  1.0E-05
  3.000E-01  6.85388E-06  3.07414E-15  1.09779E+02  0.00000E+00  1.0E-05
  3.250E-01  8.04378E-06  2.36548E-15  8.44729E+01  0.00000E+00  1.0E-05
  3.500E-01  9.32888E-06  1.83872E-15  6.56619E+01  0.00000E+00  1.0E-05
  3.750E-01  1.07092E-05  1.44773E-15  5.16993E+01  0.00000E+00  1.0E-05
  4.000E-01  1.21846E-05  1.15333E-15  4.11863E+01  0.00000E+00  1.0E-05
  4.250E-01  1.37553E-05  9.28711E-16  3.31649E+01  0.00000E+00  1.0E-05
  4.500E-01  1.54212E-05  7.55368E-16  2.69747E+01  0.00000E+00  1.0E-05
  4.750E-01  1.71822E-05  6.20950E-16  2.21745E+01  0.00000E+00  1.0E-05
  5.000E-01  1.90385E-05  5.15416E-16  1.84059E+01  0.00000E+00  1.0E-05
  5.250E-01  2.09899E-05  4.31810E-16  1.54202E+01  0.00000E+00  1.0E-05
  5.500E-01  2.30365E-05  3.64687E-16  1.30232E+01  0.00000E+00  1.0E-05
  5.750E-01  2.51783E-05  3.10413E-16  1.10851E+01  0.00000E+00  1.0E-05
  6.000E-01  2.74153E-05  2.66112E-16  9.50302E+00  0.00000E+00  1.0E-05
  6.250E-01  2.97475E-05  2.29641E-16  8.20062E+00  0.00000E+00  1.0E-05
  6.500E-01  3.21749E-05  1.99338E-16  7.11848E+00  0.00000E+00  1.0E-05
  6.750E-01  3.46974E-05  1.73970E-16  6.21257E+00  0.00000E+00  1.0E-05
  7.000E-01  3.73152E-05  1.52607E-16  5.44968E+00  0.00000E+00  1.0E-05
  7.250E-01  4.00281E-05  1.34503E-16  4.80319E+00  0.00000E+00  1.0E-05
  7.500E-01  4.28362E-05  1.19040E-16  4.25100E+00  0.00000E+00  1.0E-05
  7.750E-01  4.57395E-05  1.05763E-16  3.77686E+00  0.00000E+00  1.0E-05
  8.000E-01  4.87380E-05  9.43116E-17  3.36793E+00  0.00000E+00  1.0E-05
  8.250E-01  5.18317E-05  8.43848E-17  3.01344E+00  0.00000E+00  1.0E-05
  8.500E-01  5.50205E-05  7.57282E-17  2.70430E+00  0.00000E+00  1.0E-05
  8.750E-01  5.83045E-05  6.81446E-17  2.43349E+00  0.00000E+00  1.0E-05
  9.000E-01  6.16838E-05  6.14884E-17  2.19579E+00  0.00000E+00  1.0E-05
  9.250E-01  6.51582E-05  5.56249E-17  1.98640E+00  0.00000E+00  1.0E-05
  9.500E-01  6.87277E-05  5.04387E-17  1.80120E+00  0.00000E+00  1.0E-05
  9.750E-01  7.23925E-05  4.58307E-17  1.63664E+00  0.00000E+00  1.0E-05
  1.000E+00  7.61524E-05  4.17347E-17  1.49037E+00  0.00000E+00  8.1E-06
  1.100E+00  9.21439E-05  2.92550E-17  1.04472E+00  0.00000E+00  6.1E-06
  1.200E+00  1.09658E-04  2.10673E-17  7.52328E-01  0.00000E+00  3.4E-06
  1.300E+00  1.28695E-04  1.55257E-17  5.54433E-01  0.00000E+00  7.6E-07
  1.400E+00  1.49255E-04  1.16700E-17  4.16742E-01  0.00000E+00  1.3E-06
  1.500E+00  1.71338E-04  8.93862E-18  3.19204E-01  0.00000E+00  2.3E-06
  1.600E+00  1.94942E-04  6.95860E-18  2.48496E-01  0.00000E+00  2.5E-06
  1.700E+00  2.20070E-04  5.49566E-18  1.96254E-01  0.00000E+00  2.0E-06
  1.800E+00  2.46720E-04  4.39674E-18  1.57010E-01  0.00000E+00  1.2E-06
  1.900E+00  2.74892E-04  3.55974E-18  1.27121E-01  0.00000E+00  2.4E-07
  2.000E+00  3.04586E-04  2.91325E-18  1.04034E-01  0.00000E+00  5.7E-07
  2.100E+00  3.35803E-04  2.40752E-18  8.59740E-02  0.00000E+00  1.0E-06
  2.200E+00  3.68542E-04  2.00706E-18  7.16735E-02  0.00000E+00  1.1E-06
  2.300E+00  4.02802E-04  1.68688E-18  6.02395E-02  0.00000E+00  9.4E-07
  2.400E+00  4.38585E-04  1.42835E-18  5.10074E-02  0.00000E+00  5.5E-07
  2.500E+00  4.75889E-04  1.21774E-18  4.34864E-02  0.00000E+00  1.0E-07
  2.600E+00  5.14715E-04  1.04464E-18  3.73047E-02  0.00000E+00  3.2E-07
  2.700E+00  5.55063E-04  9.01360E-19  3.21882E-02  0.00000E+00  5.7E-07
  2.800E+00  5.96931E-04  7.81930E-19  2.79232E-02  0.00000E+00  6.2E-07
  2.900E+00  6.40321E-04  6.81722E-19  2.43447E-02  0.00000E+00  5.2E-07
  3.000E+00  6.85233E-04  5.97098E-19  2.13227E-02  0.00000E+00  3.0E-07
  3.100E+00  7.31665E-04  5.25240E-19  1.87567E-02  0.00000E+00  1.0E-07
  3.200E+00  7.79618E-04  4.63913E-19  1.65666E-02  0.00000E+00  2.1E-07
  3.300E+00  8.29092E-04  4.11309E-19  1.46881E-02  0.00000E+00  3.5E-07
  3.400E+00  8.80086E-04  3.65968E-19  1.30690E-02  0.00000E+00  3.8E-07
  3.500E+00  9.32601E-04  3.26711E-19  1.16671E-02  0.00000E+00  3.2E-07
  3.600E+00  9.86636E-04  2.92595E-19  1.04488E-02  0.00000E+00  1.8E-07
  3.700E+00  1.04219E-03  2.62829E-19  9.38580E-03  0.00000E+00  1.0E-07
  3.800E+00  1.09927E-03  2.36760E-19  8.45484E-03  0.00000E+00  1.5E-07
  3.900E+00  1.15786E-03  2.13843E-19  7.63646E-03  0.00000E+00  2.4E-07
  4.000E+00  1.21797E-03  1.93639E-19  6.91496E-03  0.00000E+00  2.5E-07
  4.100E+00  1.27961E-03  1.75771E-19  6.27688E-03  0.00000E+00  2.1E-07
  4.200E+00  1.34276E-03  1.59920E-19  5.71085E-03  0.00000E+00  1.1E-07
  4.300E+00  1.40743E-03  1.45814E-19  5.20713E-03  0.00000E+00  1.0E-07
  4.400E+00  1.47362E-03  1.33233E-19  4.75785E-03  0.00000E+00  1.1E-07
  4.500E+00  1.54133E-03  1.21983E-19  4.35608E-03  0.00000E+00  1.7E-07
  4.600E+00  1.61056E-03  1.11897E-19  3.99591E-03  0.00000E+00  1.8E-07
  4.700E+00  1.68131E-03  1.02831E-19  3.67218E-03  0.00000E+00  1.4E-07
  4.800E+00  1.75357E-03  9.46669E-20  3.38062E-03  0.00000E+00  1.0E-07
  4.900E+00  1.82735E-03  8.72983E-20  3.11748E-03  0.00000E+00  1.0E-07
  5.000E+00  1.90265E-03  8.06341E-20  2.87949E-03  0.00000E+00  1.0E-07
  5.100E+00  1.97947E-03  7.45936E-20  2.66379E-03  0.00000E+00  1.2E-07
  5.200E+00  2.05780E-03  6.91089E-20  2.46792E-03  0.00000E+00  1.3E-07
  5.300E+00  2.13765E-03  6.41200E-20  2.28977E-03  0.00000E+00  1.0E-07
  5.400E+00  2.21902E-03  5.95741E-20  2.12743E-03  0.00000E+00  1.0E-07
  5.500E+00  2.30190E-03  5.54243E-20  1.97924E-03  0.00000E+00  1.0E-07
  5.600E+00  2.38630E-03  5.16298E-20  1.84373E-03  0.00000E+00  1.0E-07
  5.700E+00  2.47222E-03  4.81552E-20  1.71965E-03  0.00000E+00  1.0E-07
  5.800E+00  2.55965E-03  4.49685E-20  1.60586E-03  0.00000E+00  1.0E-07
  5.900E+00  2.64859E-03  4.20416E-20  1.50133E-03  0.00000E+00  1.0E-07
  6.000E+00  2.73905E-03  3.93490E-20  1.40518E-03  0.00000E+00  1.0E-07
  6.100E+00  2.83103E-03  3.68691E-20  1.31662E-03  0.00000E+00  1.0E-07
  6.200E+00  2.92452E-03  3.45819E-20  1.23494E-03  0.00000E+00  1.0E-07
  6.300E+00  3.01952E-03  3.24697E-20  1.15951E-03  0.00000E+00  1.0E-07
  6.400E+00  3.11604E-03  3.05164E-20  1.08976E-03  0.00000E+00  1.0E-07
  6.500E+00  3.21407E-03  2.87082E-20  1.02519E-03  0.00000E+00  1.0E-07
  6.600E+00  3.31362E-03  2.70322E-20  9.65339E-04  0.00000E+00  1.0E-07
  6.700E+00  3.41468E-03  2.54771E-20  9.09805E-04  0.00000E+00  1.0E-07
  6.800E+00  3.51725E-03  2.40324E-20  8.58211E-04  0.00000E+00  1.0E-07
  6.900E+00  3.62133E-03  2.26888E-20  8.10233E-04  0.00000E+00  1.0E-07
  7.000E+00  3.72692E-03  2.14381E-20  7.65570E-04  0.00000E+00  1.0E-07
  7.100E+00  3.83403E-03  2.02727E-20  7.23950E-04  0.00000E+00  1.0E-07
  7.200E+00  3.94265E-03  1.91855E-20  6.85126E-04  0.00000E+00  1.0E-07
  7.300E+00  4.05278E-03  1.81704E-20  6.48876E-04  0.00000E+00  1.0E-07
  7.400E+00  4.16442E-03  1.72217E-20  6.14999E-04  0.00000E+00  1.0E-07
  7.500E+00  4.27757E-03  1.63344E-20  5.83311E-04  0.00000E+00  1.0E-07
  7.600E+00  4.39223E-03  1.55036E-20  5.53642E-04  0.00000E+00  1.0E-07
  7.700E+00  4.50840E-03  1.47251E-20  5.25841E-04  0.00000E+00  1.0E-07
  7.800E+00  4.62608E-03  1.39950E-20  4.99769E-04  0.00000E+00  1.0E-07
  7.900E+00  4.74527E-03  1.33097E-20  4.75298E-04  0.00000E+00  1.0E-07
  8.000E+00  4.86597E-03  1.26660E-20  4.52310E-04  0.00000E+00  1.0E-07
  8.100E+00  4.98817E-03  1.20608E-20  4.30700E-04  0.00000E+00  1.0E-07
  8.200E+00  5.11188E-03  1.14915E-20  4.10369E-04  0.00000E+00  1.0E-07
  8.300E+00  5.23711E-03  1.09555E-20  3.91228E-04  0.00000E+00  1.0E-07
  8.400E+00  5.36383E-03  1.04505E-20  3.73194E-04  0.00000E+00  1.0E-07
  8.500E+00  5.49207E-03  9.97432E-21  3.56190E-04  0.00000E+00  1.0E-07
  8.600E+00  5.62181E-03  9.52507E-21  3.40147E-04  0.00000E+00  1.0E-07
  8.700E+00  5.75306E-03  9.10093E-21  3.25000E-04  0.00000E+00  1.0E-07
  8.800E+00  5.88581E-03  8.70022E-21  3.10690E-04  0.00000E+00  1.0E-07
  8.900E+00  6.02007E-03  8.32138E-21  2.97162E-04  0.00000E+00  1.0E-07
  9.000E+00  6.15583E-03  7.96303E-21  2.84365E-04  0.00000E+00  1.0E-07
  9.100E+00  6.29310E-03  7.62383E-21  2.72252E-04  0.00000E+00  1.0E-07
  9.200E+00  6.43187E-03  7.30258E-21  2.60780E-04  0.00000E+00  1.0E-07
  9.300E+00  6.57214E-03  6.99812E-21  2.49908E-04  0.00000E+00  1.0E-07
  9.400E+00  6.71392E-03  6.70944E-21  2.39598E-04  0.00000E+00  1.0E-07
  9.500E+00  6.85720E-03  6.43554E-21  2.29817E-04  0.00000E+00  1.0E-07
  9.600E+00  7.00198E-03  6.17555E-21  2.20533E-04  0.00000E+00  1.0E-07
  9.700E+00  7.14827E-03  5.92859E-21  2.11714E-04  0.00000E+00  1.0E-07
  9.800E+00  7.29605E-03  5.69391E-21  2.03333E-04  0.00000E+00  1.0E-07
  9.900E+00  7.44534E-03  5.47078E-21  1.95365E-04  0.00000E+00  1.0E-07
  1.000E+01  7.59612E-03  5.25853E-21  1.87785E-04  0.00000E+00  1.0E-07
  1.025E+01  7.97965E-03  4.77139E-21  1.70390E-04  0.00000E+00  1.0E-07
  1.050E+01  8.37255E-03  4.33962E-21  1.54971E-04  0.00000E+00  1.0E-07
  1.075E+01  8.77480E-03  3.95580E-21  1.41264E-04  0.00000E+00  1.0E-07
  1.100E+01  9.18641E-03  3.61367E-21  1.29047E-04  0.00000E+00  1.0E-07
  1.125E+01  9.60736E-03  3.30791E-21  1.18128E-04  0.00000E+00  1.0E-07
  1.150E+01  1.00376E-02  3.03396E-21  1.08345E-04  0.00000E+00  1.0E-07
  1.175E+01  1.04773E-02  2.78792E-21  9.95586E-05  0.00000E+00  1.0E-07
  1.200E+01  1.09262E-02  2.56645E-21  9.16496E-05  0.00000E+00  1.0E-07
  1.225E+01  1.13844E-02  2.36664E-21  8.45144E-05  0.00000E+00  1.0E-07
  1.250E+01  1.18520E-02  2.18601E-21  7.80637E-05  0.00000E+00  1.0E-07
  1.275E+01  1.23288E-02  2.02236E-21  7.22199E-05  0.00000E+00  1.0E-07
  1.300E+01  1.28150E-02  1.87383E-21  6.69157E-05  0.00000E+00  1.0E-07
  1.325E+01  1.33104E-02  1.73876E-21  6.20922E-05  0.00000E+00  1.0E-07
  1.350E+01  1.38150E-02  1.61571E-21  5.76979E-05  0.00000E+00  1.0E-07
  1.375E+01  1.43290E-02  1.50341E-21  5.36876E-05  0.00000E+00  1.0E-07
  1.400E+01  1.48521E-02  1.40075E-21  5.00217E-05  0.00000E+00  1.0E-07
  1.425E+01  1.53845E-02  1.30676E-21  4.66652E-05  0.00000E+00  1.0E-07
  1.450E+01  1.59262E-02  1.22056E-21  4.35871E-05  0.00000E+00  1.0E-07
  1.475E+01  1.64770E-02  1.14140E-21  4.07601E-05  0.00000E+00  1.0E-07
  1.500E+01  1.70371E-02  1.06859E-21  3.81599E-05  0.00000E+00  1.0E-07
  1.525E+01  1.76063E-02  1.00152E-21  3.57651E-05  0.00000E+00  1.0E-07
