 #
 # Subroutine ELSEPA. Elastic scattering of electrons and positrons
 #                    by neutral atoms and positive ions
 #
 # Projectile: electron
 # Kinetic energy = 3.70000E+06 eV = 1.35973E+05 a.u.
 #
 # WARNING: High-energy factorization with free-atom DF screening.
 #          Absorption, polarization and exchange corrections are
 #          switched off.
 #          Phase shifts are calculated for the bare nucleus.
 #          Scattering amplitudes are not evaluated.
 #
 # Element: Ir,  Z =  77,  atomic weight = 1.92217E+02 g/mol
 #
 # Nuclear model: Fermi distribution
 #                Average radius = 6.17515E-13 cm
 #                Skin thickness = 5.46000E-14 cm
 #
 # Number of electrons = 77
 #
 # Total elastic cross section = 7.86941E-18 cm**2 = 2.81022E-01 a0**2
 # 1st transport cross section = 5.47542E-22 cm**2 = 1.95531E-05 a0**2
 # 2nd transport cross section = 1.46563E-21 cm**2 = 5.23387E-05 a0**2
 #
 #
 # Differential cross section:                       MU=(1-COS(THETA))/2
 #
 #  THETA        MU          DCS          DCS        Sherman      error
 #  (deg)                 (cm**2/sr)   (a0**2/sr)    function
 #----------------------------------------------------------------------
  0.000E+00  0.00000E+00  8.69431E-13  3.10479E+04  0.00000E+00  1.0E-05
  1.000E-04  7.61557E-13  8.69428E-13  3.10478E+04  0.00000E+00  1.0E-05
  1.250E-04  1.18994E-12  8.69426E-13  3.10478E+04  0.00000E+00  1.0E-05
  1.500E-04  1.71346E-12  8.69424E-13  3.10477E+04  0.00000E+00  1.0E-05
  1.750E-04  2.33225E-12  8.69422E-13  3.10476E+04  0.00000E+00  1.0E-05
  2.000E-04  3.04617E-12  8.69419E-13  3.10475E+04  0.00000E+00  1.0E-05
  2.250E-04  3.85530E-12  8.69416E-13  3.10474E+04  0.00000E+00  1.0E-05
  2.500E-04  4.75964E-12  8.69412E-13  3.10473E+04  0.00000E+00  1.0E-05
  2.750E-04  5.75917E-12  8.69408E-13  3.10471E+04  0.00000E+00  1.0E-05
  3.000E-04  6.85391E-12  8.69404E-13  3.10470E+04  0.00000E+00  1.0E-05
  3.250E-04  8.04379E-12  8.69400E-13  3.10468E+04  0.00000E+00  1.0E-05
  3.500E-04  9.32893E-12  8.69395E-13  3.10466E+04  0.00000E+00  1.0E-05
  3.750E-04  1.07092E-11  8.69389E-13  3.10464E+04  0.00000E+00  1.0E-05
  4.000E-04  1.21847E-11  8.69383E-13  3.10462E+04  0.00000E+00  1.0E-05
  4.250E-04  1.37554E-11  8.69377E-13  3.10460E+04  0.00000E+00  1.0E-05
  4.500E-04  1.54213E-11  8.69371E-13  3.10458E+04  0.00000E+00  1.0E-05
  4.750E-04  1.71823E-11  8.69364E-13  3.10455E+04  0.00000E+00  1.0E-05
  5.000E-04  1.90386E-11  8.69356E-13  3.10453E+04  0.00000E+00  1.0E-05
  5.250E-04  2.09900E-11  8.69349E-13  3.10450E+04  0.00000E+00  1.0E-05
  5.500E-04  2.30367E-11  8.69341E-13  3.10447E+04  0.00000E+00  1.0E-05
  5.750E-04  2.51785E-11  8.69332E-13  3.10444E+04  0.00000E+00  1.0E-05
  6.000E-04  2.74156E-11  8.69323E-13  3.10441E+04  0.00000E+00  1.0E-05
  6.250E-04  2.97478E-11  8.69314E-13  3.10438E+04  0.00000E+00  1.0E-05
  6.500E-04  3.21752E-11  8.69305E-13  3.10434E+04  0.00000E+00  1.0E-05
  6.750E-04  3.46979E-11  8.69295E-13  3.10431E+04  0.00000E+00  1.0E-05
  7.000E-04  3.73157E-11  8.69285E-13  3.10427E+04  0.00000E+00  1.0E-05
  7.250E-04  4.00286E-11  8.69274E-13  3.10423E+04  0.00000E+00  1.0E-05
  7.500E-04  4.28368E-11  8.69263E-13  3.10419E+04  0.00000E+00  1.0E-05
  7.750E-04  4.57402E-11  8.69251E-13  3.10415E+04  0.00000E+00  1.0E-05
  8.000E-04  4.87388E-11  8.69240E-13  3.10411E+04  0.00000E+00  1.0E-05
  8.250E-04  5.18325E-11  8.69227E-13  3.10407E+04  0.00000E+00  1.0E-05
  8.500E-04  5.50215E-11  8.69215E-13  3.10402E+04  0.00000E+00  1.0E-05
  8.750E-04  5.83057E-11  8.69202E-13  3.10398E+04  0.00000E+00  1.0E-05
  9.000E-04  6.16850E-11  8.69189E-13  3.10393E+04  0.00000E+00  1.0E-05
  9.250E-04  6.51595E-11  8.69175E-13  3.10388E+04  0.00000E+00  1.0E-05
  9.500E-04  6.87293E-11  8.69161E-13  3.10383E+04  0.00000E+00  1.0E-05
  9.750E-04  7.23943E-11  8.69146E-13  3.10378E+04  0.00000E+00  1.0E-05
  1.000E-03  7.61544E-11  8.69132E-13  3.10373E+04  0.00000E+00  1.0E-05
  1.250E-03  1.18991E-10  8.68963E-13  3.10312E+04  0.00000E+00  1.0E-05
  1.500E-03  1.71347E-10  8.68757E-13  3.10239E+04  0.00000E+00  1.0E-05
  1.750E-03  2.33223E-10  8.68513E-13  3.10152E+04  0.00000E+00  1.0E-05
  2.000E-03  3.04617E-10  8.68232E-13  3.10051E+04  0.00000E+00  1.0E-05
  2.250E-03  3.85531E-10  8.67914E-13  3.09938E+04  0.00000E+00  1.0E-05
  2.500E-03  4.75965E-10  8.67558E-13  3.09811E+04  0.00000E+00  1.0E-05
  2.750E-03  5.75917E-10  8.67166E-13  3.09670E+04  0.00000E+00  1.0E-05
  3.000E-03  6.85389E-10  8.66736E-13  3.09517E+04  0.00000E+00  1.0E-05
  3.250E-03  8.04380E-10  8.66269E-13  3.09350E+04  0.00000E+00  1.0E-05
  3.500E-03  9.32891E-10  8.65765E-13  3.09170E+04  0.00000E+00  1.0E-05
  3.750E-03  1.07092E-09  8.65225E-13  3.08977E+04  0.00000E+00  1.0E-05
  4.000E-03  1.21847E-09  8.64647E-13  3.08771E+04  0.00000E+00  1.0E-05
  4.250E-03  1.37554E-09  8.64034E-13  3.08552E+04  0.00000E+00  1.0E-05
  4.500E-03  1.54213E-09  8.63384E-13  3.08320E+04  0.00000E+00  1.0E-05
  4.750E-03  1.71823E-09  8.62697E-13  3.08075E+04  0.00000E+00  1.0E-05
  5.000E-03  1.90386E-09  8.61975E-13  3.07817E+04  0.00000E+00  1.0E-05
  5.250E-03  2.09900E-09  8.61217E-13  3.07546E+04  0.00000E+00  1.0E-05
  5.500E-03  2.30367E-09  8.60423E-13  3.07263E+04  0.00000E+00  1.0E-05
  5.750E-03  2.51785E-09  8.59593E-13  3.06966E+04  0.00000E+00  1.0E-05
  6.000E-03  2.74156E-09  8.58728E-13  3.06657E+04  0.00000E+00  1.0E-05
  6.250E-03  2.97478E-09  8.57828E-13  3.06336E+04  0.00000E+00  1.0E-05
  6.500E-03  3.21752E-09  8.56892E-13  3.06002E+04  0.00000E+00  1.0E-05
  6.750E-03  3.46978E-09  8.55922E-13  3.05655E+04  0.00000E+00  1.0E-05
  7.000E-03  3.73156E-09  8.54917E-13  3.05297E+04  0.00000E+00  1.0E-05
  7.250E-03  4.00286E-09  8.53879E-13  3.04926E+04  0.00000E+00  1.0E-05
  7.500E-03  4.28368E-09  8.52805E-13  3.04542E+04  0.00000E+00  1.0E-05
  7.750E-03  4.57402E-09  8.51698E-13  3.04147E+04  0.00000E+00  1.0E-05
  8.000E-03  4.87388E-09  8.50557E-13  3.03739E+04  0.00000E+00  1.0E-05
  8.250E-03  5.18326E-09  8.49383E-13  3.03320E+04  0.00000E+00  1.0E-05
  8.500E-03  5.50215E-09  8.48175E-13  3.02889E+04  0.00000E+00  1.0E-05
  8.750E-03  5.83057E-09  8.46935E-13  3.02446E+04  0.00000E+00  1.0E-05
  9.000E-03  6.16850E-09  8.45661E-13  3.01991E+04  0.00000E+00  1.0E-05
  9.250E-03  6.51596E-09  8.44356E-13  3.01525E+04  0.00000E+00  1.0E-05
  9.500E-03  6.87293E-09  8.43019E-13  3.01047E+04  0.00000E+00  1.0E-05
  9.750E-03  7.23942E-09  8.41649E-13  3.00558E+04  0.00000E+00  1.0E-05
  1.000E-02  7.61544E-09  8.40248E-13  3.00058E+04  0.00000E+00  1.0E-05
  1.250E-02  1.18991E-08  8.24569E-13  2.94459E+04  0.00000E+00  1.0E-05
  1.500E-02  1.71347E-08  8.05995E-13  2.87826E+04  0.00000E+00  1.0E-05
  1.750E-02  2.33223E-08  7.85050E-13  2.80347E+04  0.00000E+00  1.0E-05
  2.000E-02  3.04617E-08  7.62114E-13  2.72156E+04  0.00000E+00  1.0E-05
  2.250E-02  3.85531E-08  7.37423E-13  2.63339E+04  0.00000E+00  1.0E-05
  2.500E-02  4.75965E-08  7.11387E-13  2.54041E+04  0.00000E+00  1.0E-05
  2.750E-02  5.75917E-08  6.84511E-13  2.44443E+04  0.00000E+00  1.0E-05
  3.000E-02  6.85389E-08  6.57163E-13  2.34677E+04  0.00000E+00  1.0E-05
  3.250E-02  8.04380E-08  6.29514E-13  2.24803E+04  0.00000E+00  1.0E-05
  3.500E-02  9.32891E-08  6.01766E-13  2.14895E+04  0.00000E+00  1.0E-05
  3.750E-02  1.07092E-07  5.74383E-13  2.05116E+04  0.00000E+00  1.0E-05
  4.000E-02  1.21847E-07  5.47568E-13  1.95540E+04  0.00000E+00  1.0E-05
  4.250E-02  1.37554E-07  5.21405E-13  1.86197E+04  0.00000E+00  1.0E-05
  4.500E-02  1.54213E-07  4.95836E-13  1.77066E+04  0.00000E+00  1.0E-05
  4.750E-02  1.71823E-07  4.71230E-13  1.68279E+04  0.00000E+00  1.0E-05
  5.000E-02  1.90386E-07  4.47648E-13  1.59858E+04  0.00000E+00  1.0E-05
  5.250E-02  2.09900E-07  4.25119E-13  1.51813E+04  0.00000E+00  1.0E-05
  5.500E-02  2.30367E-07  4.03411E-13  1.44061E+04  0.00000E+00  1.0E-05
  5.750E-02  2.51785E-07  3.82805E-13  1.36702E+04  0.00000E+00  1.0E-05
  6.000E-02  2.74156E-07  3.63283E-13  1.29731E+04  0.00000E+00  1.0E-05
  6.250E-02  2.97478E-07  3.44816E-13  1.23136E+04  0.00000E+00  1.0E-05
  6.500E-02  3.21752E-07  3.27213E-13  1.16850E+04  0.00000E+00  1.0E-05
  6.750E-02  3.46978E-07  3.10580E-13  1.10910E+04  0.00000E+00  1.0E-05
  7.000E-02  3.73156E-07  2.94905E-13  1.05313E+04  0.00000E+00  1.0E-05
  7.250E-02  4.00286E-07  2.80141E-13  1.00040E+04  0.00000E+00  1.0E-05
  7.500E-02  4.28368E-07  2.66151E-13  9.50441E+03  0.00000E+00  1.0E-05
  7.750E-02  4.57402E-07  2.52937E-13  9.03254E+03  0.00000E+00  1.0E-05
  8.000E-02  4.87388E-07  2.40506E-13  8.58862E+03  0.00000E+00  1.0E-05
  8.250E-02  5.18325E-07  2.28809E-13  8.17090E+03  0.00000E+00  1.0E-05
  8.500E-02  5.50215E-07  2.17755E-13  7.77619E+03  0.00000E+00  1.0E-05
  8.750E-02  5.83057E-07  2.07298E-13  7.40274E+03  0.00000E+00  1.0E-05
  9.000E-02  6.16850E-07  1.97456E-13  7.05128E+03  0.00000E+00  1.0E-05
  9.250E-02  6.51596E-07  1.88188E-13  6.72032E+03  0.00000E+00  1.0E-05
  9.500E-02  6.87293E-07  1.79439E-13  6.40790E+03  0.00000E+00  1.0E-05
  9.750E-02  7.23942E-07  1.71139E-13  6.11149E+03  0.00000E+00  1.0E-05
  1.000E-01  7.61543E-07  1.63316E-13  5.83212E+03  0.00000E+00  1.0E-05
  1.250E-01  1.18991E-06  1.04895E-13  3.74586E+03  0.00000E+00  1.0E-05
  1.500E-01  1.71347E-06  6.92988E-14  2.47471E+03  0.00000E+00  1.0E-05
  1.750E-01  2.33223E-06  4.81967E-14  1.72113E+03  0.00000E+00  1.0E-05
  2.000E-01  3.04617E-06  3.46041E-14  1.23574E+03  0.00000E+00  1.0E-05
  2.250E-01  3.85531E-06  2.53634E-14  9.05744E+02  0.00000E+00  1.0E-05
  2.500E-01  4.75964E-06  1.90270E-14  6.79466E+02  0.00000E+00  1.0E-05
  2.750E-01  5.75916E-06  1.46012E-14  5.21418E+02  0.00000E+00  1.0E-05
  3.000E-01  6.85388E-06  1.14154E-14  4.07650E+02  0.00000E+00  1.0E-05
  3.250E-01  8.04378E-06  9.04525E-15  3.23012E+02  0.00000E+00  1.0E-05
  3.500E-01  9.32888E-06  7.24604E-15  2.58761E+02  0.00000E+00  1.0E-05
  3.750E-01  1.07092E-05  5.87462E-15  2.09786E+02  0.00000E+00  1.0E-05
  4.000E-01  1.21846E-05  4.81106E-15  1.71806E+02  0.00000E+00  1.0E-05
  4.250E-01  1.37553E-05  3.97167E-15  1.41831E+02  0.00000E+00  1.0E-05
  4.500E-01  1.54212E-05  3.29794E-15  1.17771E+02  0.00000E+00  1.0E-05
  4.750E-01  1.71822E-05  2.75979E-15  9.85538E+01  0.00000E+00  1.0E-05
  5.000E-01  1.90385E-05  2.32429E-15  8.30020E+01  0.00000E+00  1.0E-05
  5.250E-01  2.09899E-05  1.97260E-15  7.04427E+01  0.00000E+00  1.0E-05
  5.500E-01  2.30365E-05  1.68183E-15  6.00593E+01  0.00000E+00  1.0E-05
  5.750E-01  2.51783E-05  1.44241E-15  5.15092E+01  0.00000E+00  1.0E-05
  6.000E-01  2.74153E-05  1.24390E-15  4.44204E+01  0.00000E+00  1.0E-05
  6.250E-01  2.97475E-05  1.07843E-15  3.85115E+01  0.00000E+00  1.0E-05
  6.500E-01  3.21749E-05  9.39750E-16  3.35591E+01  0.00000E+00  1.0E-05
  6.750E-01  3.46974E-05  8.22476E-16  2.93711E+01  0.00000E+00  1.0E-05
  7.000E-01  3.73152E-05  7.23240E-16  2.58274E+01  0.00000E+00  1.0E-05
  7.250E-01  4.00281E-05  6.38967E-16  2.28179E+01  0.00000E+00  1.0E-05
  7.500E-01  4.28362E-05  5.66894E-16  2.02441E+01  0.00000E+00  1.0E-05
  7.750E-01  4.57395E-05  5.04948E-16  1.80320E+01  0.00000E+00  1.0E-05
  8.000E-01  4.87380E-05  4.51448E-16  1.61215E+01  0.00000E+00  1.0E-05
  8.250E-01  5.18317E-05  4.05002E-16  1.44629E+01  0.00000E+00  1.0E-05
  8.500E-01  5.50205E-05  3.64435E-16  1.30142E+01  0.00000E+00  1.0E-05
  8.750E-01  5.83045E-05  3.28837E-16  1.17430E+01  0.00000E+00  1.0E-05
  9.000E-01  6.16838E-05  2.97545E-16  1.06255E+01  0.00000E+00  1.0E-05
  9.250E-01  6.51582E-05  2.69940E-16  9.63975E+00  0.00000E+00  1.0E-05
  9.500E-01  6.87277E-05  2.45490E-16  8.76660E+00  0.00000E+00  1.0E-05
  9.750E-01  7.23925E-05  2.23735E-16  7.98973E+00  0.00000E+00  1.0E-05
  1.000E+00  7.61524E-05  2.04368E-16  7.29813E+00  0.00000E+00  7.8E-06
  1.100E+00  9.21439E-05  1.45140E-16  5.18303E+00  0.00000E+00  5.9E-06
  1.200E+00  1.09658E-04  1.05949E-16  3.78350E+00  0.00000E+00  3.2E-06
  1.300E+00  1.28695E-04  7.91231E-17  2.82554E+00  0.00000E+00  6.4E-07
  1.400E+00  1.49255E-04  6.02203E-17  2.15050E+00  0.00000E+00  1.3E-06
  1.500E+00  1.71338E-04  4.66812E-17  1.66701E+00  0.00000E+00  2.3E-06
  1.600E+00  1.94942E-04  3.67517E-17  1.31243E+00  0.00000E+00  2.4E-06
  1.700E+00  2.20070E-04  2.93247E-17  1.04720E+00  0.00000E+00  1.9E-06
  1.800E+00  2.46720E-04  2.36725E-17  8.45360E-01  0.00000E+00  1.1E-06
  1.900E+00  2.74892E-04  1.93237E-17  6.90060E-01  0.00000E+00  1.7E-07
  2.000E+00  3.04586E-04  1.59318E-17  5.68934E-01  0.00000E+00  5.8E-07
  2.100E+00  3.35803E-04  1.32540E-17  4.73309E-01  0.00000E+00  1.0E-06
  2.200E+00  3.68542E-04  1.11117E-17  3.96807E-01  0.00000E+00  1.1E-06
  2.300E+00  4.02802E-04  9.38694E-18  3.35214E-01  0.00000E+00  8.9E-07
  2.400E+00  4.38585E-04  7.98528E-18  2.85159E-01  0.00000E+00  5.0E-07
  2.500E+00  4.75889E-04  6.83648E-18  2.44135E-01  0.00000E+00  1.0E-07
  2.600E+00  5.14715E-04  5.88635E-18  2.10205E-01  0.00000E+00  3.3E-07
  2.700E+00  5.55063E-04  5.09617E-18  1.81987E-01  0.00000E+00  5.6E-07
  2.800E+00  5.96931E-04  4.43484E-18  1.58371E-01  0.00000E+00  6.0E-07
  2.900E+00  6.40321E-04  3.87784E-18  1.38480E-01  0.00000E+00  4.8E-07
  3.000E+00  6.85233E-04  3.40559E-18  1.21616E-01  0.00000E+00  2.6E-07
  3.100E+00  7.31665E-04  3.00326E-18  1.07248E-01  0.00000E+00  1.0E-07
  3.200E+00  7.79618E-04  2.65892E-18  9.49518E-02  0.00000E+00  2.2E-07
  3.300E+00  8.29092E-04  2.36278E-18  8.43766E-02  0.00000E+00  3.5E-07
  3.400E+00  8.80086E-04  2.10681E-18  7.52355E-02  0.00000E+00  3.7E-07
  3.500E+00  9.32601E-04  1.88462E-18  6.73009E-02  0.00000E+00  2.9E-07
  3.600E+00  9.86636E-04  1.69110E-18  6.03901E-02  0.00000E+00  1.5E-07
  3.700E+00  1.04219E-03  1.52189E-18  5.43478E-02  0.00000E+00  1.0E-07
  3.800E+00  1.09927E-03  1.37339E-18  4.90446E-02  0.00000E+00  1.5E-07
  3.900E+00  1.15786E-03  1.24255E-18  4.43722E-02  0.00000E+00  2.3E-07
  4.000E+00  1.21797E-03  1.12699E-18  4.02455E-02  0.00000E+00  2.4E-07
  4.100E+00  1.27961E-03  1.02461E-18  3.65894E-02  0.00000E+00  1.9E-07
  4.200E+00  1.34276E-03  9.33630E-19  3.33405E-02  0.00000E+00  1.0E-07
  4.300E+00  1.40743E-03  8.52505E-19  3.04435E-02  0.00000E+00  1.0E-07
  4.400E+00  1.47362E-03  7.80034E-19  2.78555E-02  0.00000E+00  1.1E-07
  4.500E+00  1.54133E-03  7.15131E-19  2.55378E-02  0.00000E+00  1.7E-07
  4.600E+00  1.61056E-03  6.56862E-19  2.34570E-02  0.00000E+00  1.7E-07
  4.700E+00  1.68131E-03  6.04397E-19  2.15834E-02  0.00000E+00  1.3E-07
  4.800E+00  1.75357E-03  5.57082E-19  1.98938E-02  0.00000E+00  1.0E-07
  4.900E+00  1.82735E-03  5.14323E-19  1.83668E-02  0.00000E+00  1.0E-07
  5.000E+00  1.90265E-03  4.75604E-19  1.69841E-02  0.00000E+00  1.0E-07
  5.100E+00  1.97947E-03  4.40459E-19  1.57291E-02  0.00000E+00  1.2E-07
  5.200E+00  2.05780E-03  4.08508E-19  1.45881E-02  0.00000E+00  1.2E-07
  5.300E+00  2.13765E-03  3.79413E-19  1.35491E-02  0.00000E+00  1.0E-07
  5.400E+00  2.21902E-03  3.52872E-19  1.26013E-02  0.00000E+00  1.0E-07
  5.500E+00  2.30190E-03  3.28616E-19  1.17351E-02  0.00000E+00  1.0E-07
  5.600E+00  2.38630E-03  3.06411E-19  1.09421E-02  0.00000E+00  1.0E-07
  5.700E+00  2.47222E-03  2.86060E-19  1.02154E-02  0.00000E+00  1.0E-07
  5.800E+00  2.55965E-03  2.67377E-19  9.54822E-03  0.00000E+00  1.0E-07
  5.900E+00  2.64859E-03  2.50200E-19  8.93481E-03  0.00000E+00  1.0E-07
  6.000E+00  2.73905E-03  2.34383E-19  8.36997E-03  0.00000E+00  1.0E-07
  6.100E+00  2.83103E-03  2.19802E-19  7.84929E-03  0.00000E+00  1.0E-07
  6.200E+00  2.92452E-03  2.06344E-19  7.36869E-03  0.00000E+00  1.0E-07
  6.300E+00  3.01952E-03  1.93905E-19  6.92448E-03  0.00000E+00  1.0E-07
  6.400E+00  3.11604E-03  1.82392E-19  6.51333E-03  0.00000E+00  1.0E-07
  6.500E+00  3.21407E-03  1.71725E-19  6.13241E-03  0.00000E+00  1.0E-07
  6.600E+00  3.31362E-03  1.61832E-19  5.77911E-03  0.00000E+00  1.0E-07
  6.700E+00  3.41468E-03  1.52645E-19  5.45105E-03  0.00000E+00  1.0E-07
  6.800E+00  3.51725E-03  1.44103E-19  5.14601E-03  0.00000E+00  1.0E-07
  6.900E+00  3.62133E-03  1.36154E-19  4.86215E-03  0.00000E+00  1.0E-07
  7.000E+00  3.72692E-03  1.28749E-19  4.59772E-03  0.00000E+00  1.0E-07
  7.100E+00  3.83403E-03  1.21845E-19  4.35116E-03  0.00000E+00  1.0E-07
  7.200E+00  3.94265E-03  1.15399E-19  4.12099E-03  0.00000E+00  1.0E-07
  7.300E+00  4.05278E-03  1.09377E-19  3.90594E-03  0.00000E+00  1.0E-07
  7.400E+00  4.16442E-03  1.03746E-19  3.70484E-03  0.00000E+00  1.0E-07
  7.500E+00  4.27757E-03  9.84755E-20  3.51662E-03  0.00000E+00  1.0E-07
  7.600E+00  4.39223E-03  9.35375E-20  3.34028E-03  0.00000E+00  1.0E-07
  7.700E+00  4.50840E-03  8.89074E-20  3.17494E-03  0.00000E+00  1.0E-07
  7.800E+00  4.62608E-03  8.45627E-20  3.01979E-03  0.00000E+00  1.0E-07
  7.900E+00  4.74527E-03  8.04825E-20  2.87408E-03  0.00000E+00  1.0E-07
  8.000E+00  4.86597E-03  7.66474E-20  2.73713E-03  0.00000E+00  1.0E-07
  8.100E+00  4.98817E-03  7.30398E-20  2.60830E-03  0.00000E+00  1.0E-07
  8.200E+00  5.11188E-03  6.96439E-20  2.48703E-03  0.00000E+00  1.0E-07
  8.300E+00  5.23711E-03  6.64450E-20  2.37280E-03  0.00000E+00  1.0E-07
  8.400E+00  5.36383E-03  6.34294E-20  2.26511E-03  0.00000E+00  1.0E-07
  8.500E+00  5.49207E-03  6.05844E-20  2.16351E-03  0.00000E+00  1.0E-07
  8.600E+00  5.62181E-03  5.78987E-20  2.06760E-03  0.00000E+00  1.0E-07
  8.700E+00  5.75306E-03  5.53617E-20  1.97700E-03  0.00000E+00  1.0E-07
  8.800E+00  5.88581E-03  5.29636E-20  1.89137E-03  0.00000E+00  1.0E-07
  8.900E+00  6.02007E-03  5.06952E-20  1.81036E-03  0.00000E+00  1.0E-07
  9.000E+00  6.15583E-03  4.85482E-20  1.73369E-03  0.00000E+00  1.0E-07
  9.100E+00  6.29310E-03  4.65149E-20  1.66108E-03  0.00000E+00  1.0E-07
  9.200E+00  6.43187E-03  4.45882E-20  1.59227E-03  0.00000E+00  1.0E-07
  9.300E+00  6.57214E-03  4.27612E-20  1.52703E-03  0.00000E+00  1.0E-07
  9.400E+00  6.71392E-03  4.10279E-20  1.46513E-03  0.00000E+00  1.0E-07
  9.500E+00  6.85720E-03  3.93827E-20  1.40638E-03  0.00000E+00  1.0E-07
  9.600E+00  7.00198E-03  3.78201E-20  1.35058E-03  0.00000E+00  1.0E-07
  9.700E+00  7.14827E-03  3.63350E-20  1.29755E-03  0.00000E+00  1.0E-07
  9.800E+00  7.29605E-03  3.49231E-20  1.24712E-03  0.00000E+00  1.0E-07
  9.900E+00  7.44534E-03  3.35799E-20  1.19916E-03  0.00000E+00  1.0E-07
  1.000E+01  7.59612E-03  3.23015E-20  1.15351E-03  0.00000E+00  1.0E-07
  1.025E+01  7.97965E-03  2.93650E-20  1.04864E-03  0.00000E+00  1.0E-07
  1.050E+01  8.37255E-03  2.67589E-20  9.55577E-04  0.00000E+00  1.0E-07
  1.075E+01  8.77480E-03  2.44392E-20  8.72739E-04  0.00000E+00  1.0E-07
  1.100E+01  9.18641E-03  2.23688E-20  7.98805E-04  0.00000E+00  1.0E-07
  1.125E+01  9.60736E-03  2.05162E-20  7.32646E-04  0.00000E+00  1.0E-07
  1.150E+01  1.00376E-02  1.88541E-20  6.73294E-04  0.00000E+00  1.0E-07
  1.175E+01  1.04773E-02  1.73596E-20  6.19921E-04  0.00000E+00  1.0E-07
  1.200E+01  1.09262E-02  1.60125E-20  5.71815E-04  0.00000E+00  1.0E-07
  1.225E+01  1.13844E-02  1.47956E-20  5.28361E-04  0.00000E+00  1.0E-07
  1.250E+01  1.18520E-02  1.36941E-20  4.89024E-04  0.00000E+00  1.0E-07
  1.275E+01  1.23288E-02  1.26949E-20  4.53343E-04  0.00000E+00  1.0E-07
  1.300E+01  1.28150E-02  1.17868E-20  4.20915E-04  0.00000E+00  1.0E-07
  1.325E+01  1.33104E-02  1.09599E-20  3.91385E-04  0.00000E+00  1.0E-07
  1.350E+01  1.38150E-02  1.02057E-20  3.64451E-04  0.00000E+00  1.0E-07
  1.375E+01  1.43290E-02  9.51644E-21  3.39838E-04  0.00000E+00  1.0E-07
  1.400E+01  1.48521E-02  8.88554E-21  3.17308E-04  0.00000E+00  1.0E-07
  1.425E+01  1.53845E-02  8.30715E-21  2.96654E-04  0.00000E+00  1.0E-07
  1.450E+01  1.59262E-02  7.77607E-21  2.77689E-04  0.00000E+00  1.0E-07
  1.475E+01  1.64770E-02  7.28765E-21  2.60247E-04  0.00000E+00  1.0E-07
  1.500E+01  1.70371E-02  6.83781E-21  2.44183E-04  0.00000E+00  1.0E-07
  1.525E+01  1.76063E-02  6.42294E-21  2.29367E-04  0.00000E+00  1.0E-07
