 #
 # Subroutine ELSEPA. Elastic scattering of electrons and positrons
 #                    by neutral atoms and positive ions
 #
 # Projectile: electron
 # Kinetic energy = 3.70000E+06 eV = 1.35973E+05 a.u.
 #
 # WARNING: High-energy factorization with free-atom DF screening.
 #          Absorption, polarization and exchange corrections are
 #          switched off.
 #          Phase shifts are calculated for the bare nucleus.
 #          Scattering amplitudes are not evaluated.
 #
 # Element:  K,  Z =  19,  atomic weight = 3.90983E+01 g/mol
 #
 # Nuclear model: Fermi distribution
 #                Average radius = 3.63164E-13 cm
 #                Skin thickness = 5.46000E-14 cm
 #
 # Number of electrons = 19
 #
 # Total elastic cross section = 1.53579E-18 cm**2 = 5.48441E-02 a0**2
 # 1st transport cross section = 3.13035E-23 cm**2 = 1.11787E-06 a0**2
 # 2nd transport cross section = 8.90128E-23 cm**2 = 3.17871E-06 a0**2
 #
 #
 # Differential cross section:                       MU=(1-COS(THETA))/2
 #
 #  THETA        MU          DCS          DCS        Sherman      error
 #  (deg)                 (cm**2/sr)   (a0**2/sr)    function
 #----------------------------------------------------------------------
  0.000E+00  0.00000E+00  5.45712E-13  1.94877E+04  0.00000E+00  1.0E-05
  1.000E-04  7.61557E-13  5.45704E-13  1.94875E+04  0.00000E+00  1.0E-05
  1.250E-04  1.18994E-12  5.45700E-13  1.94873E+04  0.00000E+00  1.0E-05
  1.500E-04  1.71346E-12  5.45696E-13  1.94871E+04  0.00000E+00  1.0E-05
  1.750E-04  2.33225E-12  5.45690E-13  1.94869E+04  0.00000E+00  1.0E-05
  2.000E-04  3.04617E-12  5.45683E-13  1.94867E+04  0.00000E+00  1.0E-05
  2.250E-04  3.85530E-12  5.45676E-13  1.94864E+04  0.00000E+00  1.0E-05
  2.500E-04  4.75964E-12  5.45668E-13  1.94861E+04  0.00000E+00  1.0E-05
  2.750E-04  5.75917E-12  5.45658E-13  1.94858E+04  0.00000E+00  1.0E-05
  3.000E-04  6.85391E-12  5.45648E-13  1.94855E+04  0.00000E+00  1.0E-05
  3.250E-04  8.04379E-12  5.45637E-13  1.94851E+04  0.00000E+00  1.0E-05
  3.500E-04  9.32893E-12  5.45626E-13  1.94846E+04  0.00000E+00  1.0E-05
  3.750E-04  1.07092E-11  5.45613E-13  1.94842E+04  0.00000E+00  1.0E-05
  4.000E-04  1.21847E-11  5.45600E-13  1.94837E+04  0.00000E+00  1.0E-05
  4.250E-04  1.37554E-11  5.45585E-13  1.94832E+04  0.00000E+00  1.0E-05
  4.500E-04  1.54213E-11  5.45570E-13  1.94827E+04  0.00000E+00  1.0E-05
  4.750E-04  1.71823E-11  5.45554E-13  1.94821E+04  0.00000E+00  1.0E-05
  5.000E-04  1.90386E-11  5.45537E-13  1.94815E+04  0.00000E+00  1.0E-05
  5.250E-04  2.09900E-11  5.45519E-13  1.94808E+04  0.00000E+00  1.0E-05
  5.500E-04  2.30367E-11  5.45500E-13  1.94802E+04  0.00000E+00  1.0E-05
  5.750E-04  2.51785E-11  5.45481E-13  1.94795E+04  0.00000E+00  1.0E-05
  6.000E-04  2.74156E-11  5.45460E-13  1.94787E+04  0.00000E+00  1.0E-05
  6.250E-04  2.97478E-11  5.45439E-13  1.94780E+04  0.00000E+00  1.0E-05
  6.500E-04  3.21752E-11  5.45417E-13  1.94772E+04  0.00000E+00  1.0E-05
  6.750E-04  3.46979E-11  5.45394E-13  1.94764E+04  0.00000E+00  1.0E-05
  7.000E-04  3.73157E-11  5.45370E-13  1.94755E+04  0.00000E+00  1.0E-05
  7.250E-04  4.00286E-11  5.45345E-13  1.94746E+04  0.00000E+00  1.0E-05
  7.500E-04  4.28368E-11  5.45320E-13  1.94737E+04  0.00000E+00  1.0E-05
  7.750E-04  4.57402E-11  5.45293E-13  1.94728E+04  0.00000E+00  1.0E-05
  8.000E-04  4.87388E-11  5.45266E-13  1.94718E+04  0.00000E+00  1.0E-05
  8.250E-04  5.18325E-11  5.45238E-13  1.94708E+04  0.00000E+00  1.0E-05
  8.500E-04  5.50215E-11  5.45209E-13  1.94698E+04  0.00000E+00  1.0E-05
  8.750E-04  5.83057E-11  5.45179E-13  1.94687E+04  0.00000E+00  1.0E-05
  9.000E-04  6.16850E-11  5.45148E-13  1.94676E+04  0.00000E+00  1.0E-05
  9.250E-04  6.51595E-11  5.45117E-13  1.94665E+04  0.00000E+00  1.0E-05
  9.500E-04  6.87293E-11  5.45084E-13  1.94653E+04  0.00000E+00  1.0E-05
  9.750E-04  7.23943E-11  5.45051E-13  1.94641E+04  0.00000E+00  1.0E-05
  1.000E-03  7.61544E-11  5.45017E-13  1.94629E+04  0.00000E+00  1.0E-05
  1.250E-03  1.18991E-10  5.44627E-13  1.94490E+04  0.00000E+00  1.0E-05
  1.500E-03  1.71347E-10  5.44152E-13  1.94320E+04  0.00000E+00  1.0E-05
  1.750E-03  2.33223E-10  5.43592E-13  1.94120E+04  0.00000E+00  1.0E-05
  2.000E-03  3.04617E-10  5.42947E-13  1.93890E+04  0.00000E+00  1.0E-05
  2.250E-03  3.85531E-10  5.42217E-13  1.93629E+04  0.00000E+00  1.0E-05
  2.500E-03  4.75965E-10  5.41403E-13  1.93339E+04  0.00000E+00  1.0E-05
  2.750E-03  5.75917E-10  5.40506E-13  1.93018E+04  0.00000E+00  1.0E-05
  3.000E-03  6.85389E-10  5.39526E-13  1.92668E+04  0.00000E+00  1.0E-05
  3.250E-03  8.04380E-10  5.38465E-13  1.92289E+04  0.00000E+00  1.0E-05
  3.500E-03  9.32891E-10  5.37323E-13  1.91881E+04  0.00000E+00  1.0E-05
  3.750E-03  1.07092E-09  5.36101E-13  1.91445E+04  0.00000E+00  1.0E-05
  4.000E-03  1.21847E-09  5.34798E-13  1.90980E+04  0.00000E+00  1.0E-05
  4.250E-03  1.37554E-09  5.33415E-13  1.90486E+04  0.00000E+00  1.0E-05
  4.500E-03  1.54213E-09  5.31959E-13  1.89966E+04  0.00000E+00  1.0E-05
  4.750E-03  1.71823E-09  5.30425E-13  1.89418E+04  0.00000E+00  1.0E-05
  5.000E-03  1.90386E-09  5.28813E-13  1.88842E+04  0.00000E+00  1.0E-05
  5.250E-03  2.09900E-09  5.27129E-13  1.88241E+04  0.00000E+00  1.0E-05
  5.500E-03  2.30367E-09  5.25373E-13  1.87614E+04  0.00000E+00  1.0E-05
  5.750E-03  2.51785E-09  5.23543E-13  1.86961E+04  0.00000E+00  1.0E-05
  6.000E-03  2.74156E-09  5.21641E-13  1.86281E+04  0.00000E+00  1.0E-05
  6.250E-03  2.97478E-09  5.19676E-13  1.85580E+04  0.00000E+00  1.0E-05
  6.500E-03  3.21752E-09  5.17639E-13  1.84852E+04  0.00000E+00  1.0E-05
  6.750E-03  3.46978E-09  5.15532E-13  1.84100E+04  0.00000E+00  1.0E-05
  7.000E-03  3.73156E-09  5.13367E-13  1.83327E+04  0.00000E+00  1.0E-05
  7.250E-03  4.00286E-09  5.11138E-13  1.82531E+04  0.00000E+00  1.0E-05
  7.500E-03  4.28368E-09  5.08841E-13  1.81711E+04  0.00000E+00  1.0E-05
  7.750E-03  4.57402E-09  5.06486E-13  1.80869E+04  0.00000E+00  1.0E-05
  8.000E-03  4.87388E-09  5.04078E-13  1.80009E+04  0.00000E+00  1.0E-05
  8.250E-03  5.18326E-09  5.01606E-13  1.79127E+04  0.00000E+00  1.0E-05
  8.500E-03  5.50215E-09  4.99073E-13  1.78222E+04  0.00000E+00  1.0E-05
  8.750E-03  5.83057E-09  4.96500E-13  1.77304E+04  0.00000E+00  1.0E-05
  9.000E-03  6.16850E-09  4.93869E-13  1.76364E+04  0.00000E+00  1.0E-05
  9.250E-03  6.51596E-09  4.91180E-13  1.75404E+04  0.00000E+00  1.0E-05
  9.500E-03  6.87293E-09  4.88449E-13  1.74428E+04  0.00000E+00  1.0E-05
  9.750E-03  7.23942E-09  4.85674E-13  1.73437E+04  0.00000E+00  1.0E-05
  1.000E-02  7.61544E-09  4.82844E-13  1.72427E+04  0.00000E+00  1.0E-05
  1.250E-02  1.18991E-08  4.52443E-13  1.61570E+04  0.00000E+00  1.0E-05
  1.500E-02  1.71347E-08  4.19328E-13  1.49745E+04  0.00000E+00  1.0E-05
  1.750E-02  2.33223E-08  3.85084E-13  1.37516E+04  0.00000E+00  1.0E-05
  2.000E-02  3.04617E-08  3.51066E-13  1.25368E+04  0.00000E+00  1.0E-05
  2.250E-02  3.85531E-08  3.18329E-13  1.13677E+04  0.00000E+00  1.0E-05
  2.500E-02  4.75965E-08  2.87610E-13  1.02708E+04  0.00000E+00  1.0E-05
  2.750E-02  5.75917E-08  2.59360E-13  9.26192E+03  0.00000E+00  1.0E-05
  3.000E-02  6.85389E-08  2.33784E-13  8.34859E+03  0.00000E+00  1.0E-05
  3.250E-02  8.04380E-08  2.10904E-13  7.53151E+03  0.00000E+00  1.0E-05
  3.500E-02  9.32891E-08  1.91177E-13  6.82706E+03  0.00000E+00  1.0E-05
  3.750E-02  1.07092E-07  1.73945E-13  6.21169E+03  0.00000E+00  1.0E-05
  4.000E-02  1.21847E-07  1.57946E-13  5.64036E+03  0.00000E+00  1.0E-05
  4.250E-02  1.37554E-07  1.43192E-13  5.11348E+03  0.00000E+00  1.0E-05
  4.500E-02  1.54213E-07  1.31594E-13  4.69931E+03  0.00000E+00  1.0E-05
  4.750E-02  1.71823E-07  1.20945E-13  4.31902E+03  0.00000E+00  1.0E-05
  5.000E-02  1.90386E-07  1.11183E-13  3.97041E+03  0.00000E+00  1.0E-05
  5.250E-02  2.09900E-07  1.02769E-13  3.66994E+03  0.00000E+00  1.0E-05
  5.500E-02  2.30367E-07  9.54081E-14  3.40709E+03  0.00000E+00  1.0E-05
  5.750E-02  2.51785E-07  8.86740E-14  3.16661E+03  0.00000E+00  1.0E-05
  6.000E-02  2.74156E-07  8.25668E-14  2.94852E+03  0.00000E+00  1.0E-05
  6.250E-02  2.97478E-07  7.71825E-14  2.75624E+03  0.00000E+00  1.0E-05
  6.500E-02  3.21752E-07  7.22577E-14  2.58037E+03  0.00000E+00  1.0E-05
  6.750E-02  3.46978E-07  6.77530E-14  2.41950E+03  0.00000E+00  1.0E-05
  7.000E-02  3.73156E-07  6.36044E-14  2.27135E+03  0.00000E+00  1.0E-05
  7.250E-02  4.00286E-07  5.98007E-14  2.13552E+03  0.00000E+00  1.0E-05
  7.500E-02  4.28368E-07  5.63177E-14  2.01114E+03  0.00000E+00  1.0E-05
  7.750E-02  4.57402E-07  5.30711E-14  1.89520E+03  0.00000E+00  1.0E-05
  8.000E-02  4.87388E-07  5.00115E-14  1.78594E+03  0.00000E+00  1.0E-05
  8.250E-02  5.18325E-07  4.72062E-14  1.68576E+03  0.00000E+00  1.0E-05
  8.500E-02  5.50215E-07  4.46314E-14  1.59382E+03  0.00000E+00  1.0E-05
  8.750E-02  5.83057E-07  4.21095E-14  1.50376E+03  0.00000E+00  1.0E-05
  9.000E-02  6.16850E-07  3.97910E-14  1.42096E+03  0.00000E+00  1.0E-05
  9.250E-02  6.51596E-07  3.76596E-14  1.34485E+03  0.00000E+00  1.0E-05
  9.500E-02  6.87293E-07  3.56121E-14  1.27173E+03  0.00000E+00  1.0E-05
  9.750E-02  7.23942E-07  3.36684E-14  1.20232E+03  0.00000E+00  1.0E-05
  1.000E-01  7.61543E-07  3.18787E-14  1.13841E+03  0.00000E+00  1.0E-05
  1.250E-01  1.18991E-06  1.86064E-14  6.64446E+02  0.00000E+00  1.0E-05
  1.500E-01  1.71347E-06  1.11382E-14  3.97753E+02  0.00000E+00  1.0E-05
  1.750E-01  2.33223E-06  6.90051E-15  2.46422E+02  0.00000E+00  1.0E-05
  2.000E-01  3.04617E-06  4.45442E-15  1.59070E+02  0.00000E+00  1.0E-05
  2.250E-01  3.85531E-06  3.00243E-15  1.07219E+02  0.00000E+00  1.0E-05
  2.500E-01  4.75964E-06  2.10812E-15  7.52825E+01  0.00000E+00  1.0E-05
  2.750E-01  5.75916E-06  1.53499E-15  5.48153E+01  0.00000E+00  1.0E-05
  3.000E-01  6.85388E-06  1.15279E-15  4.11670E+01  0.00000E+00  1.0E-05
  3.250E-01  8.04378E-06  8.88072E-16  3.17136E+01  0.00000E+00  1.0E-05
  3.500E-01  9.32888E-06  6.97775E-16  2.49180E+01  0.00000E+00  1.0E-05
  3.750E-01  1.07092E-05  5.58439E-16  1.99422E+01  0.00000E+00  1.0E-05
  4.000E-01  1.21846E-05  4.52277E-16  1.61511E+01  0.00000E+00  1.0E-05
  4.250E-01  1.37553E-05  3.70573E-16  1.32334E+01  0.00000E+00  1.0E-05
  4.500E-01  1.54212E-05  3.06702E-16  1.09525E+01  0.00000E+00  1.0E-05
  4.750E-01  1.71822E-05  2.55933E-16  9.13954E+00  0.00000E+00  1.0E-05
  5.000E-01  1.90385E-05  2.14749E-16  7.66881E+00  0.00000E+00  1.0E-05
  5.250E-01  2.09899E-05  1.81458E-16  6.47999E+00  0.00000E+00  1.0E-05
  5.500E-01  2.30365E-05  1.54268E-16  5.50901E+00  0.00000E+00  1.0E-05
  5.750E-01  2.51783E-05  1.31796E-16  4.70652E+00  0.00000E+00  1.0E-05
  6.000E-01  2.74153E-05  1.13089E-16  4.03848E+00  0.00000E+00  1.0E-05
  6.250E-01  2.97475E-05  9.75249E-17  3.48268E+00  0.00000E+00  1.0E-05
  6.500E-01  3.21749E-05  8.44919E-17  3.01726E+00  0.00000E+00  1.0E-05
  6.750E-01  3.46974E-05  7.34799E-17  2.62402E+00  0.00000E+00  1.0E-05
  7.000E-01  3.73152E-05  6.41575E-17  2.29111E+00  0.00000E+00  1.0E-05
  7.250E-01  4.00281E-05  5.62461E-17  2.00858E+00  0.00000E+00  1.0E-05
  7.500E-01  4.28362E-05  4.94981E-17  1.76761E+00  0.00000E+00  1.0E-05
  7.750E-01  4.57395E-05  4.37019E-17  1.56062E+00  0.00000E+00  1.0E-05
  8.000E-01  4.87380E-05  3.87194E-17  1.38270E+00  0.00000E+00  1.0E-05
  8.250E-01  5.18317E-05  3.44207E-17  1.22919E+00  0.00000E+00  1.0E-05
  8.500E-01  5.50205E-05  3.06966E-17  1.09620E+00  0.00000E+00  1.0E-05
  8.750E-01  5.83045E-05  2.74540E-17  9.80400E-01  0.00000E+00  1.0E-05
  9.000E-01  6.16838E-05  2.46274E-17  8.79461E-01  0.00000E+00  1.0E-05
  9.250E-01  6.51582E-05  2.21547E-17  7.91158E-01  0.00000E+00  1.0E-05
  9.500E-01  6.87277E-05  1.99836E-17  7.13627E-01  0.00000E+00  1.0E-05
  9.750E-01  7.23925E-05  1.80708E-17  6.45322E-01  0.00000E+00  1.0E-05
  1.000E+00  7.61524E-05  1.63821E-17  5.85017E-01  0.00000E+00  2.9E-06
  1.100E+00  9.21439E-05  1.13186E-17  4.04194E-01  0.00000E+00  2.2E-06
  1.200E+00  1.09658E-04  8.07511E-18  2.88367E-01  0.00000E+00  1.2E-06
  1.300E+00  1.28695E-04  5.92022E-18  2.11415E-01  0.00000E+00  2.5E-07
  1.400E+00  1.49255E-04  4.44231E-18  1.58638E-01  0.00000E+00  4.7E-07
  1.500E+00  1.71338E-04  3.40059E-18  1.21437E-01  0.00000E+00  8.5E-07
  1.600E+00  1.94942E-04  2.64855E-18  9.45814E-02  0.00000E+00  9.0E-07
  1.700E+00  2.20070E-04  2.09422E-18  7.47861E-02  0.00000E+00  7.2E-07
  1.800E+00  2.46720E-04  1.67809E-18  5.99258E-02  0.00000E+00  4.1E-07
  1.900E+00  2.74892E-04  1.36062E-18  4.85885E-02  0.00000E+00  1.0E-07
  2.000E+00  3.04586E-04  1.11492E-18  3.98144E-02  0.00000E+00  2.2E-07
  2.100E+00  3.35803E-04  9.22305E-19  3.29361E-02  0.00000E+00  3.8E-07
  2.200E+00  3.68542E-04  7.69560E-19  2.74815E-02  0.00000E+00  4.1E-07
  2.300E+00  4.02802E-04  6.47157E-19  2.31104E-02  0.00000E+00  3.3E-07
  2.400E+00  4.38585E-04  5.48133E-19  1.95742E-02  0.00000E+00  1.9E-07
  2.500E+00  4.75889E-04  4.67327E-19  1.66885E-02  0.00000E+00  1.0E-07
  2.600E+00  5.14715E-04  4.00856E-19  1.43148E-02  0.00000E+00  1.2E-07
  2.700E+00  5.55063E-04  3.45778E-19  1.23480E-02  0.00000E+00  2.1E-07
  2.800E+00  5.96931E-04  2.99827E-19  1.07070E-02  0.00000E+00  2.2E-07
  2.900E+00  6.40321E-04  2.61248E-19  9.32935E-03  0.00000E+00  1.8E-07
  3.000E+00  6.85233E-04  2.28669E-19  8.16592E-03  0.00000E+00  1.0E-07
  3.100E+00  7.31665E-04  2.01005E-19  7.17800E-03  0.00000E+00  1.0E-07
  3.200E+00  7.79618E-04  1.77393E-19  6.33481E-03  0.00000E+00  1.0E-07
  3.300E+00  8.29092E-04  1.57143E-19  5.61166E-03  0.00000E+00  1.3E-07
  3.400E+00  8.80086E-04  1.39696E-19  4.98865E-03  0.00000E+00  1.4E-07
  3.500E+00  9.32601E-04  1.24601E-19  4.44958E-03  0.00000E+00  1.1E-07
  3.600E+00  9.86636E-04  1.11488E-19  3.98131E-03  0.00000E+00  1.0E-07
  3.700E+00  1.04219E-03  1.00054E-19  3.57298E-03  0.00000E+00  1.0E-07
  3.800E+00  1.09927E-03  9.00466E-20  3.21562E-03  0.00000E+00  1.0E-07
  3.900E+00  1.15786E-03  8.12587E-20  2.90180E-03  0.00000E+00  1.0E-07
  4.000E+00  1.21797E-03  7.35157E-20  2.62529E-03  0.00000E+00  1.0E-07
  4.100E+00  1.27961E-03  6.66724E-20  2.38091E-03  0.00000E+00  1.0E-07
  4.200E+00  1.34276E-03  6.06066E-20  2.16430E-03  0.00000E+00  1.0E-07
  4.300E+00  1.40743E-03  5.52148E-20  1.97176E-03  0.00000E+00  1.0E-07
  4.400E+00  1.47362E-03  5.04092E-20  1.80014E-03  0.00000E+00  1.0E-07
  4.500E+00  1.54133E-03  4.61150E-20  1.64680E-03  0.00000E+00  1.0E-07
  4.600E+00  1.61056E-03  4.22680E-20  1.50942E-03  0.00000E+00  1.0E-07
  4.700E+00  1.68131E-03  3.88140E-20  1.38607E-03  0.00000E+00  1.0E-07
  4.800E+00  1.75357E-03  3.57056E-20  1.27507E-03  0.00000E+00  1.0E-07
  4.900E+00  1.82735E-03  3.29022E-20  1.17496E-03  0.00000E+00  1.0E-07
  5.000E+00  1.90265E-03  3.03687E-20  1.08449E-03  0.00000E+00  1.0E-07
  5.100E+00  1.97947E-03  2.80744E-20  1.00256E-03  0.00000E+00  1.0E-07
  5.200E+00  2.05780E-03  2.59927E-20  9.28217E-04  0.00000E+00  1.0E-07
  5.300E+00  2.13765E-03  2.41005E-20  8.60646E-04  0.00000E+00  1.0E-07
  5.400E+00  2.21902E-03  2.23775E-20  7.99116E-04  0.00000E+00  1.0E-07
  5.500E+00  2.30190E-03  2.08058E-20  7.42990E-04  0.00000E+00  1.0E-07
  5.600E+00  2.38630E-03  1.93698E-20  6.91708E-04  0.00000E+00  1.0E-07
  5.700E+00  2.47222E-03  1.80556E-20  6.44777E-04  0.00000E+00  1.0E-07
  5.800E+00  2.55965E-03  1.68511E-20  6.01763E-04  0.00000E+00  1.0E-07
  5.900E+00  2.64859E-03  1.57454E-20  5.62279E-04  0.00000E+00  1.0E-07
  6.000E+00  2.73905E-03  1.47290E-20  5.25984E-04  0.00000E+00  1.0E-07
  6.100E+00  2.83103E-03  1.37934E-20  4.92573E-04  0.00000E+00  1.0E-07
  6.200E+00  2.92452E-03  1.29310E-20  4.61775E-04  0.00000E+00  1.0E-07
  6.300E+00  3.01952E-03  1.21350E-20  4.33350E-04  0.00000E+00  1.0E-07
  6.400E+00  3.11604E-03  1.13994E-20  4.07081E-04  0.00000E+00  1.0E-07
  6.500E+00  3.21407E-03  1.07188E-20  3.82775E-04  0.00000E+00  1.0E-07
  6.600E+00  3.31362E-03  1.00882E-20  3.60258E-04  0.00000E+00  1.0E-07
  6.700E+00  3.41468E-03  9.50345E-21  3.39374E-04  0.00000E+00  1.0E-07
  6.800E+00  3.51725E-03  8.96047E-21  3.19984E-04  0.00000E+00  1.0E-07
  6.900E+00  3.62133E-03  8.45578E-21  3.01961E-04  0.00000E+00  1.0E-07
  7.000E+00  3.72692E-03  7.98617E-21  2.85191E-04  0.00000E+00  1.0E-07
  7.100E+00  3.83403E-03  7.54876E-21  2.69571E-04  0.00000E+00  1.0E-07
  7.200E+00  3.94265E-03  7.14093E-21  2.55007E-04  0.00000E+00  1.0E-07
  7.300E+00  4.05278E-03  6.76032E-21  2.41415E-04  0.00000E+00  1.0E-07
  7.400E+00  4.16442E-03  6.40477E-21  2.28718E-04  0.00000E+00  1.0E-07
  7.500E+00  4.27757E-03  6.07232E-21  2.16847E-04  0.00000E+00  1.0E-07
  7.600E+00  4.39223E-03  5.76120E-21  2.05736E-04  0.00000E+00  1.0E-07
  7.700E+00  4.50840E-03  5.46979E-21  1.95330E-04  0.00000E+00  1.0E-07
  7.800E+00  4.62608E-03  5.19660E-21  1.85574E-04  0.00000E+00  1.0E-07
  7.900E+00  4.74527E-03  4.94029E-21  1.76421E-04  0.00000E+00  1.0E-07
  8.000E+00  4.86597E-03  4.69961E-21  1.67826E-04  0.00000E+00  1.0E-07
  8.100E+00  4.98817E-03  4.47344E-21  1.59749E-04  0.00000E+00  1.0E-07
  8.200E+00  5.11188E-03  4.26074E-21  1.52154E-04  0.00000E+00  1.0E-07
  8.300E+00  5.23711E-03  4.06055E-21  1.45005E-04  0.00000E+00  1.0E-07
  8.400E+00  5.36383E-03  3.87200E-21  1.38272E-04  0.00000E+00  1.0E-07
  8.500E+00  5.49207E-03  3.69429E-21  1.31926E-04  0.00000E+00  1.0E-07
  8.600E+00  5.62181E-03  3.52669E-21  1.25940E-04  0.00000E+00  1.0E-07
  8.700E+00  5.75306E-03  3.36849E-21  1.20291E-04  0.00000E+00  1.0E-07
  8.800E+00  5.88581E-03  3.21909E-21  1.14956E-04  0.00000E+00  1.0E-07
  8.900E+00  6.02007E-03  3.07790E-21  1.09914E-04  0.00000E+00  1.0E-07
  9.000E+00  6.15583E-03  2.94438E-21  1.05146E-04  0.00000E+00  1.0E-07
  9.100E+00  6.29310E-03  2.81803E-21  1.00634E-04  0.00000E+00  1.0E-07
  9.200E+00  6.43187E-03  2.69841E-21  9.63619E-05  0.00000E+00  1.0E-07
  9.300E+00  6.57214E-03  2.58508E-21  9.23148E-05  0.00000E+00  1.0E-07
  9.400E+00  6.71392E-03  2.47765E-21  8.84783E-05  0.00000E+00  1.0E-07
  9.500E+00  6.85720E-03  2.37575E-21  8.48396E-05  0.00000E+00  1.0E-07
  9.600E+00  7.00198E-03  2.27905E-21  8.13864E-05  0.00000E+00  1.0E-07
  9.700E+00  7.14827E-03  2.18723E-21  7.81075E-05  0.00000E+00  1.0E-07
  9.800E+00  7.29605E-03  2.10000E-21  7.49925E-05  0.00000E+00  1.0E-07
  9.900E+00  7.44534E-03  2.01709E-21  7.20315E-05  0.00000E+00  1.0E-07
  1.000E+01  7.59612E-03  1.93823E-21  6.92156E-05  0.00000E+00  1.0E-07
  1.025E+01  7.97965E-03  1.75736E-21  6.27563E-05  0.00000E+00  1.0E-07
  1.050E+01  8.37255E-03  1.59714E-21  5.70348E-05  0.00000E+00  1.0E-07
  1.075E+01  8.77480E-03  1.45481E-21  5.19521E-05  0.00000E+00  1.0E-07
  1.100E+01  9.18641E-03  1.32802E-21  4.74245E-05  0.00000E+00  1.0E-07
  1.125E+01  9.60736E-03  1.21478E-21  4.33807E-05  0.00000E+00  1.0E-07
  1.150E+01  1.00376E-02  1.11339E-21  3.97598E-05  0.00000E+00  1.0E-07
  1.175E+01  1.04773E-02  1.02238E-21  3.65098E-05  0.00000E+00  1.0E-07
  1.200E+01  1.09262E-02  9.40504E-22  3.35860E-05  0.00000E+00  1.0E-07
  1.225E+01  1.13844E-02  8.66676E-22  3.09496E-05  0.00000E+00  1.0E-07
  1.250E+01  1.18520E-02  7.99959E-22  2.85671E-05  0.00000E+00  1.0E-07
  1.275E+01  1.23288E-02  7.39556E-22  2.64100E-05  0.00000E+00  1.0E-07
  1.300E+01  1.28150E-02  6.84763E-22  2.44533E-05  0.00000E+00  1.0E-07
  1.325E+01  1.33104E-02  6.34964E-22  2.26750E-05  0.00000E+00  1.0E-07
  1.350E+01  1.38150E-02  5.89623E-22  2.10558E-05  0.00000E+00  1.0E-07
  1.375E+01  1.43290E-02  5.48268E-22  1.95790E-05  0.00000E+00  1.0E-07
  1.400E+01  1.48521E-02  5.10485E-22  1.82298E-05  0.00000E+00  1.0E-07
  1.425E+01  1.53845E-02  4.75910E-22  1.69951E-05  0.00000E+00  1.0E-07
  1.450E+01  1.59262E-02  4.44221E-22  1.58634E-05  0.00000E+00  1.0E-07
  1.475E+01  1.64770E-02  4.15133E-22  1.48247E-05  0.00000E+00  1.0E-07
  1.500E+01  1.70371E-02  3.88394E-22  1.38698E-05  0.00000E+00  1.0E-07
  1.525E+01  1.76063E-02  3.63778E-22  1.29908E-05  0.00000E+00  1.0E-07
