 #
 # Subroutine ELSEPA. Elastic scattering of electrons and positrons
 #                    by neutral atoms and positive ions
 #
 # Projectile: electron
 # Kinetic energy = 3.70000E+06 eV = 1.35973E+05 a.u.
 #
 # WARNING: High-energy factorization with free-atom DF screening.
 #          Absorption, polarization and exchange corrections are
 #          switched off.
 #          Phase shifts are calculated for the bare nucleus.
 #          Scattering amplitudes are not evaluated.
 #
 # Element: Ni,  Z =  28,  atomic weight = 5.86934E+01 g/mol
 #
 # Nuclear model: Fermi distribution
 #                Average radius = 4.15828E-13 cm
 #                Skin thickness = 5.46000E-14 cm
 #
 # Number of electrons = 28
 #
 # Total elastic cross section = 2.00041E-18 cm**2 = 7.14359E-02 a0**2
 # 1st transport cross section = 6.77601E-23 cm**2 = 2.41976E-06 a0**2
 # 2nd transport cross section = 1.91575E-22 cm**2 = 6.84128E-06 a0**2
 #
 #
 # Differential cross section:                       MU=(1-COS(THETA))/2
 #
 #  THETA        MU          DCS          DCS        Sherman      error
 #  (deg)                 (cm**2/sr)   (a0**2/sr)    function
 #----------------------------------------------------------------------
  0.000E+00  0.00000E+00  2.89398E-13  1.03346E+04  0.00000E+00  1.0E-05
  1.000E-04  7.61557E-13  2.89396E-13  1.03345E+04  0.00000E+00  1.0E-05
  1.250E-04  1.18994E-12  2.89396E-13  1.03345E+04  0.00000E+00  1.0E-05
  1.500E-04  1.71346E-12  2.89395E-13  1.03345E+04  0.00000E+00  1.0E-05
  1.750E-04  2.33225E-12  2.89394E-13  1.03344E+04  0.00000E+00  1.0E-05
  2.000E-04  3.04617E-12  2.89393E-13  1.03344E+04  0.00000E+00  1.0E-05
  2.250E-04  3.85530E-12  2.89391E-13  1.03343E+04  0.00000E+00  1.0E-05
  2.500E-04  4.75964E-12  2.89390E-13  1.03343E+04  0.00000E+00  1.0E-05
  2.750E-04  5.75917E-12  2.89388E-13  1.03342E+04  0.00000E+00  1.0E-05
  3.000E-04  6.85391E-12  2.89386E-13  1.03342E+04  0.00000E+00  1.0E-05
  3.250E-04  8.04379E-12  2.89384E-13  1.03341E+04  0.00000E+00  1.0E-05
  3.500E-04  9.32893E-12  2.89382E-13  1.03340E+04  0.00000E+00  1.0E-05
  3.750E-04  1.07092E-11  2.89379E-13  1.03339E+04  0.00000E+00  1.0E-05
  4.000E-04  1.21847E-11  2.89377E-13  1.03338E+04  0.00000E+00  1.0E-05
  4.250E-04  1.37554E-11  2.89374E-13  1.03337E+04  0.00000E+00  1.0E-05
  4.500E-04  1.54213E-11  2.89371E-13  1.03336E+04  0.00000E+00  1.0E-05
  4.750E-04  1.71823E-11  2.89368E-13  1.03335E+04  0.00000E+00  1.0E-05
  5.000E-04  1.90386E-11  2.89365E-13  1.03334E+04  0.00000E+00  1.0E-05
  5.250E-04  2.09900E-11  2.89362E-13  1.03333E+04  0.00000E+00  1.0E-05
  5.500E-04  2.30367E-11  2.89358E-13  1.03332E+04  0.00000E+00  1.0E-05
  5.750E-04  2.51785E-11  2.89354E-13  1.03330E+04  0.00000E+00  1.0E-05
  6.000E-04  2.74156E-11  2.89350E-13  1.03329E+04  0.00000E+00  1.0E-05
  6.250E-04  2.97478E-11  2.89346E-13  1.03327E+04  0.00000E+00  1.0E-05
  6.500E-04  3.21752E-11  2.89342E-13  1.03326E+04  0.00000E+00  1.0E-05
  6.750E-04  3.46979E-11  2.89338E-13  1.03324E+04  0.00000E+00  1.0E-05
  7.000E-04  3.73157E-11  2.89333E-13  1.03323E+04  0.00000E+00  1.0E-05
  7.250E-04  4.00286E-11  2.89329E-13  1.03321E+04  0.00000E+00  1.0E-05
  7.500E-04  4.28368E-11  2.89324E-13  1.03319E+04  0.00000E+00  1.0E-05
  7.750E-04  4.57402E-11  2.89319E-13  1.03318E+04  0.00000E+00  1.0E-05
  8.000E-04  4.87388E-11  2.89313E-13  1.03316E+04  0.00000E+00  1.0E-05
  8.250E-04  5.18325E-11  2.89308E-13  1.03314E+04  0.00000E+00  1.0E-05
  8.500E-04  5.50215E-11  2.89303E-13  1.03312E+04  0.00000E+00  1.0E-05
  8.750E-04  5.83057E-11  2.89297E-13  1.03310E+04  0.00000E+00  1.0E-05
  9.000E-04  6.16850E-11  2.89291E-13  1.03308E+04  0.00000E+00  1.0E-05
  9.250E-04  6.51595E-11  2.89285E-13  1.03306E+04  0.00000E+00  1.0E-05
  9.500E-04  6.87293E-11  2.89279E-13  1.03303E+04  0.00000E+00  1.0E-05
  9.750E-04  7.23943E-11  2.89273E-13  1.03301E+04  0.00000E+00  1.0E-05
  1.000E-03  7.61544E-11  2.89266E-13  1.03299E+04  0.00000E+00  1.0E-05
  1.250E-03  1.18991E-10  2.89192E-13  1.03272E+04  0.00000E+00  1.0E-05
  1.500E-03  1.71347E-10  2.89101E-13  1.03240E+04  0.00000E+00  1.0E-05
  1.750E-03  2.33223E-10  2.88994E-13  1.03202E+04  0.00000E+00  1.0E-05
  2.000E-03  3.04617E-10  2.88871E-13  1.03158E+04  0.00000E+00  1.0E-05
  2.250E-03  3.85531E-10  2.88731E-13  1.03108E+04  0.00000E+00  1.0E-05
  2.500E-03  4.75965E-10  2.88575E-13  1.03052E+04  0.00000E+00  1.0E-05
  2.750E-03  5.75917E-10  2.88402E-13  1.02990E+04  0.00000E+00  1.0E-05
  3.000E-03  6.85389E-10  2.88214E-13  1.02923E+04  0.00000E+00  1.0E-05
  3.250E-03  8.04380E-10  2.88009E-13  1.02850E+04  0.00000E+00  1.0E-05
  3.500E-03  9.32891E-10  2.87788E-13  1.02771E+04  0.00000E+00  1.0E-05
  3.750E-03  1.07092E-09  2.87551E-13  1.02686E+04  0.00000E+00  1.0E-05
  4.000E-03  1.21847E-09  2.87298E-13  1.02596E+04  0.00000E+00  1.0E-05
  4.250E-03  1.37554E-09  2.87029E-13  1.02500E+04  0.00000E+00  1.0E-05
  4.500E-03  1.54213E-09  2.86744E-13  1.02398E+04  0.00000E+00  1.0E-05
  4.750E-03  1.71823E-09  2.86444E-13  1.02291E+04  0.00000E+00  1.0E-05
  5.000E-03  1.90386E-09  2.86127E-13  1.02178E+04  0.00000E+00  1.0E-05
  5.250E-03  2.09900E-09  2.85796E-13  1.02059E+04  0.00000E+00  1.0E-05
  5.500E-03  2.30367E-09  2.85448E-13  1.01935E+04  0.00000E+00  1.0E-05
  5.750E-03  2.51785E-09  2.85085E-13  1.01806E+04  0.00000E+00  1.0E-05
  6.000E-03  2.74156E-09  2.84707E-13  1.01671E+04  0.00000E+00  1.0E-05
  6.250E-03  2.97478E-09  2.84314E-13  1.01530E+04  0.00000E+00  1.0E-05
  6.500E-03  3.21752E-09  2.83906E-13  1.01385E+04  0.00000E+00  1.0E-05
  6.750E-03  3.46978E-09  2.83482E-13  1.01233E+04  0.00000E+00  1.0E-05
  7.000E-03  3.73156E-09  2.83044E-13  1.01077E+04  0.00000E+00  1.0E-05
  7.250E-03  4.00286E-09  2.82591E-13  1.00915E+04  0.00000E+00  1.0E-05
  7.500E-03  4.28368E-09  2.82123E-13  1.00748E+04  0.00000E+00  1.0E-05
  7.750E-03  4.57402E-09  2.81641E-13  1.00576E+04  0.00000E+00  1.0E-05
  8.000E-03  4.87388E-09  2.81145E-13  1.00399E+04  0.00000E+00  1.0E-05
  8.250E-03  5.18326E-09  2.80634E-13  1.00216E+04  0.00000E+00  1.0E-05
  8.500E-03  5.50215E-09  2.80109E-13  1.00029E+04  0.00000E+00  1.0E-05
  8.750E-03  5.83057E-09  2.79570E-13  9.98363E+03  0.00000E+00  1.0E-05
  9.000E-03  6.16850E-09  2.79017E-13  9.96389E+03  0.00000E+00  1.0E-05
  9.250E-03  6.51596E-09  2.78451E-13  9.94366E+03  0.00000E+00  1.0E-05
  9.500E-03  6.87293E-09  2.77871E-13  9.92295E+03  0.00000E+00  1.0E-05
  9.750E-03  7.23942E-09  2.77278E-13  9.90176E+03  0.00000E+00  1.0E-05
  1.000E-02  7.61544E-09  2.76671E-13  9.88010E+03  0.00000E+00  1.0E-05
  1.250E-02  1.18991E-08  2.69914E-13  9.63879E+03  0.00000E+00  1.0E-05
  1.500E-02  1.71347E-08  2.61993E-13  9.35595E+03  0.00000E+00  1.0E-05
  1.750E-02  2.33223E-08  2.53146E-13  9.04002E+03  0.00000E+00  1.0E-05
  2.000E-02  3.04617E-08  2.43566E-13  8.69789E+03  0.00000E+00  1.0E-05
  2.250E-02  3.85531E-08  2.33403E-13  8.33496E+03  0.00000E+00  1.0E-05
  2.500E-02  4.75965E-08  2.22853E-13  7.95823E+03  0.00000E+00  1.0E-05
  2.750E-02  5.75917E-08  2.12126E-13  7.57517E+03  0.00000E+00  1.0E-05
  3.000E-02  6.85389E-08  2.01381E-13  7.19145E+03  0.00000E+00  1.0E-05
  3.250E-02  8.04380E-08  1.90716E-13  6.81058E+03  0.00000E+00  1.0E-05
  3.500E-02  9.32891E-08  1.80229E-13  6.43611E+03  0.00000E+00  1.0E-05
  3.750E-02  1.07092E-07  1.70064E-13  6.07310E+03  0.00000E+00  1.0E-05
  4.000E-02  1.21847E-07  1.60287E-13  5.72397E+03  0.00000E+00  1.0E-05
  4.250E-02  1.37554E-07  1.50933E-13  5.38990E+03  0.00000E+00  1.0E-05
  4.500E-02  1.54213E-07  1.41999E-13  5.07089E+03  0.00000E+00  1.0E-05
  4.750E-02  1.71823E-07  1.33560E-13  4.76953E+03  0.00000E+00  1.0E-05
  5.000E-02  1.90386E-07  1.25619E-13  4.48594E+03  0.00000E+00  1.0E-05
  5.250E-02  2.09900E-07  1.18169E-13  4.21990E+03  0.00000E+00  1.0E-05
  5.500E-02  2.30367E-07  1.11159E-13  3.96958E+03  0.00000E+00  1.0E-05
  5.750E-02  2.51785E-07  1.04620E-13  3.73604E+03  0.00000E+00  1.0E-05
  6.000E-02  2.74156E-07  9.85279E-14  3.51849E+03  0.00000E+00  1.0E-05
  6.250E-02  2.97478E-07  9.28588E-14  3.31605E+03  0.00000E+00  1.0E-05
  6.500E-02  3.21752E-07  8.75641E-14  3.12697E+03  0.00000E+00  1.0E-05
  6.750E-02  3.46978E-07  8.26400E-14  2.95113E+03  0.00000E+00  1.0E-05
  7.000E-02  3.73156E-07  7.80655E-14  2.78777E+03  0.00000E+00  1.0E-05
  7.250E-02  4.00286E-07  7.38150E-14  2.63598E+03  0.00000E+00  1.0E-05
  7.500E-02  4.28368E-07  6.98511E-14  2.49443E+03  0.00000E+00  1.0E-05
  7.750E-02  4.57402E-07  6.61576E-14  2.36253E+03  0.00000E+00  1.0E-05
  8.000E-02  4.87388E-07  6.27212E-14  2.23981E+03  0.00000E+00  1.0E-05
  8.250E-02  5.18325E-07  5.95213E-14  2.12554E+03  0.00000E+00  1.0E-05
  8.500E-02  5.50215E-07  5.65315E-14  2.01878E+03  0.00000E+00  1.0E-05
  8.750E-02  5.83057E-07  5.37328E-14  1.91883E+03  0.00000E+00  1.0E-05
  9.000E-02  6.16850E-07  5.11193E-14  1.82550E+03  0.00000E+00  1.0E-05
  9.250E-02  6.51596E-07  4.86760E-14  1.73825E+03  0.00000E+00  1.0E-05
  9.500E-02  6.87293E-07  4.63858E-14  1.65647E+03  0.00000E+00  1.0E-05
  9.750E-02  7.23942E-07  4.42293E-14  1.57946E+03  0.00000E+00  1.0E-05
  1.000E-01  7.61543E-07  4.22064E-14  1.50722E+03  0.00000E+00  1.0E-05
  1.250E-01  1.18991E-06  2.73155E-14  9.75455E+02  0.00000E+00  1.0E-05
  1.500E-01  1.71347E-06  1.81733E-14  6.48981E+02  0.00000E+00  1.0E-05
  1.750E-01  2.33223E-06  1.26294E-14  4.51003E+02  0.00000E+00  1.0E-05
  2.000E-01  3.04617E-06  8.96990E-15  3.20321E+02  0.00000E+00  1.0E-05
  2.250E-01  3.85531E-06  6.41602E-15  2.29120E+02  0.00000E+00  1.0E-05
  2.500E-01  4.75964E-06  4.65478E-15  1.66225E+02  0.00000E+00  1.0E-05
  2.750E-01  5.75916E-06  3.43754E-15  1.22757E+02  0.00000E+00  1.0E-05
  3.000E-01  6.85388E-06  2.57842E-15  9.20771E+01  0.00000E+00  1.0E-05
  3.250E-01  8.04378E-06  1.95947E-15  6.99740E+01  0.00000E+00  1.0E-05
  3.500E-01  9.32888E-06  1.51023E-15  5.39312E+01  0.00000E+00  1.0E-05
  3.750E-01  1.07092E-05  1.18216E-15  4.22156E+01  0.00000E+00  1.0E-05
  4.000E-01  1.21846E-05  9.38541E-16  3.35159E+01  0.00000E+00  1.0E-05
  4.250E-01  1.37553E-05  7.54873E-16  2.69570E+01  0.00000E+00  1.0E-05
  4.500E-01  1.54212E-05  6.14471E-16  2.19432E+01  0.00000E+00  1.0E-05
  4.750E-01  1.71822E-05  5.06023E-16  1.80704E+01  0.00000E+00  1.0E-05
  5.000E-01  1.90385E-05  4.21090E-16  1.50374E+01  0.00000E+00  1.0E-05
  5.250E-01  2.09899E-05  3.53835E-16  1.26357E+01  0.00000E+00  1.0E-05
  5.500E-01  2.30365E-05  2.99778E-16  1.07053E+01  0.00000E+00  1.0E-05
  5.750E-01  2.51783E-05  2.55954E-16  9.14028E+00  0.00000E+00  1.0E-05
  6.000E-01  2.74153E-05  2.20071E-16  7.85889E+00  0.00000E+00  1.0E-05
  6.250E-01  2.97475E-05  1.90425E-16  6.80020E+00  0.00000E+00  1.0E-05
  6.500E-01  3.21749E-05  1.65665E-16  5.91602E+00  0.00000E+00  1.0E-05
  6.750E-01  3.46974E-05  1.44854E-16  5.17282E+00  0.00000E+00  1.0E-05
  7.000E-01  3.73152E-05  1.27260E-16  4.54455E+00  0.00000E+00  1.0E-05
  7.250E-01  4.00281E-05  1.12295E-16  4.01011E+00  0.00000E+00  1.0E-05
  7.500E-01  4.28362E-05  9.94571E-17  3.55168E+00  0.00000E+00  1.0E-05
  7.750E-01  4.57395E-05  8.83971E-17  3.15672E+00  0.00000E+00  1.0E-05
  8.000E-01  4.87380E-05  7.88345E-17  2.81523E+00  0.00000E+00  1.0E-05
  8.250E-01  5.18317E-05  7.05274E-17  2.51858E+00  0.00000E+00  1.0E-05
  8.500E-01  5.50205E-05  6.32685E-17  2.25936E+00  0.00000E+00  1.0E-05
  8.750E-01  5.83045E-05  5.68999E-17  2.03193E+00  0.00000E+00  1.0E-05
  9.000E-01  6.16838E-05  5.13059E-17  1.83217E+00  0.00000E+00  1.0E-05
  9.250E-01  6.51582E-05  4.63756E-17  1.65610E+00  0.00000E+00  1.0E-05
  9.500E-01  6.87277E-05  4.20134E-17  1.50033E+00  0.00000E+00  1.0E-05
  9.750E-01  7.23925E-05  3.81376E-17  1.36192E+00  0.00000E+00  1.0E-05
  1.000E+00  7.61524E-05  3.46938E-17  1.23894E+00  0.00000E+00  5.2E-06
  1.100E+00  9.21439E-05  2.42184E-17  8.64855E-01  0.00000E+00  3.8E-06
  1.200E+00  1.09658E-04  1.73744E-17  6.20451E-01  0.00000E+00  2.0E-06
  1.300E+00  1.28695E-04  1.27653E-17  4.55858E-01  0.00000E+00  2.8E-07
  1.400E+00  1.49255E-04  9.57513E-18  3.41934E-01  0.00000E+00  9.7E-07
  1.500E+00  1.71338E-04  7.32260E-18  2.61495E-01  0.00000E+00  1.6E-06
  1.600E+00  1.94942E-04  5.69464E-18  2.03359E-01  0.00000E+00  1.6E-06
  1.700E+00  2.20070E-04  4.49489E-18  1.60515E-01  0.00000E+00  1.2E-06
  1.800E+00  2.46720E-04  3.59537E-18  1.28393E-01  0.00000E+00  6.5E-07
  1.900E+00  2.74892E-04  2.91084E-18  1.03948E-01  0.00000E+00  1.0E-07
  2.000E+00  3.04586E-04  2.38243E-18  8.50781E-02  0.00000E+00  4.6E-07
  2.100E+00  3.35803E-04  1.96919E-18  7.03212E-02  0.00000E+00  7.2E-07
  2.200E+00  3.68542E-04  1.64200E-18  5.86370E-02  0.00000E+00  7.4E-07
  2.300E+00  4.02802E-04  1.38035E-18  4.92933E-02  0.00000E+00  5.6E-07
  2.400E+00  4.38585E-04  1.16904E-18  4.17473E-02  0.00000E+00  2.8E-07
  2.500E+00  4.75889E-04  9.96854E-19  3.55983E-02  0.00000E+00  1.0E-07
  2.600E+00  5.14715E-04  8.55273E-19  3.05424E-02  0.00000E+00  2.7E-07
  2.700E+00  5.55063E-04  7.38049E-19  2.63562E-02  0.00000E+00  4.0E-07
  2.800E+00  5.96931E-04  6.40309E-19  2.28659E-02  0.00000E+00  4.0E-07
  2.900E+00  6.40321E-04  5.58278E-19  1.99365E-02  0.00000E+00  3.0E-07
  3.000E+00  6.85233E-04  4.88984E-19  1.74619E-02  0.00000E+00  1.4E-07
  3.100E+00  7.31665E-04  4.30130E-19  1.53602E-02  0.00000E+00  1.0E-07
  3.200E+00  7.79618E-04  3.79892E-19  1.35662E-02  0.00000E+00  1.8E-07
  3.300E+00  8.29092E-04  3.36795E-19  1.20272E-02  0.00000E+00  2.5E-07
  3.400E+00  8.80086E-04  2.99643E-19  1.07004E-02  0.00000E+00  2.5E-07
  3.500E+00  9.32601E-04  2.67473E-19  9.55165E-03  0.00000E+00  1.8E-07
  3.600E+00  9.86636E-04  2.39515E-19  8.55324E-03  0.00000E+00  1.0E-07
  3.700E+00  1.04219E-03  2.15122E-19  7.68215E-03  0.00000E+00  1.0E-07
  3.800E+00  1.09927E-03  1.93758E-19  6.91922E-03  0.00000E+00  1.3E-07
  3.900E+00  1.15786E-03  1.74978E-19  6.24856E-03  0.00000E+00  1.7E-07
  4.000E+00  1.21797E-03  1.58422E-19  5.65734E-03  0.00000E+00  1.6E-07
  4.100E+00  1.27961E-03  1.43781E-19  5.13450E-03  0.00000E+00  1.1E-07
  4.200E+00  1.34276E-03  1.30794E-19  4.67073E-03  0.00000E+00  1.0E-07
  4.300E+00  1.40743E-03  1.19238E-19  4.25806E-03  0.00000E+00  1.0E-07
  4.400E+00  1.47362E-03  1.08932E-19  3.89003E-03  0.00000E+00  1.0E-07
  4.500E+00  1.54133E-03  9.97170E-20  3.56096E-03  0.00000E+00  1.2E-07
  4.600E+00  1.61056E-03  9.14570E-20  3.26599E-03  0.00000E+00  1.1E-07
  4.700E+00  1.68131E-03  8.40337E-20  3.00090E-03  0.00000E+00  1.0E-07
  4.800E+00  1.75357E-03  7.73490E-20  2.76218E-03  0.00000E+00  1.0E-07
  4.900E+00  1.82735E-03  7.13168E-20  2.54677E-03  0.00000E+00  1.0E-07
  5.000E+00  1.90265E-03  6.58619E-20  2.35197E-03  0.00000E+00  1.0E-07
  5.100E+00  1.97947E-03  6.09184E-20  2.17544E-03  0.00000E+00  1.0E-07
  5.200E+00  2.05780E-03  5.64304E-20  2.01517E-03  0.00000E+00  1.0E-07
  5.300E+00  2.13765E-03  5.23487E-20  1.86941E-03  0.00000E+00  1.0E-07
  5.400E+00  2.21902E-03  4.86299E-20  1.73661E-03  0.00000E+00  1.0E-07
  5.500E+00  2.30190E-03  4.52357E-20  1.61540E-03  0.00000E+00  1.0E-07
  5.600E+00  2.38630E-03  4.21325E-20  1.50458E-03  0.00000E+00  1.0E-07
  5.700E+00  2.47222E-03  3.92914E-20  1.40312E-03  0.00000E+00  1.0E-07
  5.800E+00  2.55965E-03  3.66861E-20  1.31009E-03  0.00000E+00  1.0E-07
  5.900E+00  2.64859E-03  3.42935E-20  1.22464E-03  0.00000E+00  1.0E-07
  6.000E+00  2.73905E-03  3.20928E-20  1.14605E-03  0.00000E+00  1.0E-07
  6.100E+00  2.83103E-03  3.00661E-20  1.07368E-03  0.00000E+00  1.0E-07
  6.200E+00  2.92452E-03  2.81972E-20  1.00694E-03  0.00000E+00  1.0E-07
  6.300E+00  3.01952E-03  2.64716E-20  9.45317E-04  0.00000E+00  1.0E-07
  6.400E+00  3.11604E-03  2.48760E-20  8.88337E-04  0.00000E+00  1.0E-07
  6.500E+00  3.21407E-03  2.33990E-20  8.35595E-04  0.00000E+00  1.0E-07
  6.600E+00  3.31362E-03  2.20303E-20  7.86718E-04  0.00000E+00  1.0E-07
  6.700E+00  3.41468E-03  2.07605E-20  7.41370E-04  0.00000E+00  1.0E-07
  6.800E+00  3.51725E-03  1.95809E-20  6.99246E-04  0.00000E+00  1.0E-07
  6.900E+00  3.62133E-03  1.84841E-20  6.60078E-04  0.00000E+00  1.0E-07
  7.000E+00  3.72692E-03  1.74631E-20  6.23620E-04  0.00000E+00  1.0E-07
  7.100E+00  3.83403E-03  1.65119E-20  5.89651E-04  0.00000E+00  1.0E-07
  7.200E+00  3.94265E-03  1.56247E-20  5.57968E-04  0.00000E+00  1.0E-07
  7.300E+00  4.05278E-03  1.47964E-20  5.28388E-04  0.00000E+00  1.0E-07
  7.400E+00  4.16442E-03  1.40224E-20  5.00748E-04  0.00000E+00  1.0E-07
  7.500E+00  4.27757E-03  1.32985E-20  4.74897E-04  0.00000E+00  1.0E-07
  7.600E+00  4.39223E-03  1.26208E-20  4.50695E-04  0.00000E+00  1.0E-07
  7.700E+00  4.50840E-03  1.19858E-20  4.28020E-04  0.00000E+00  1.0E-07
  7.800E+00  4.62608E-03  1.13903E-20  4.06757E-04  0.00000E+00  1.0E-07
  7.900E+00  4.74527E-03  1.08315E-20  3.86801E-04  0.00000E+00  1.0E-07
  8.000E+00  4.86597E-03  1.03067E-20  3.68058E-04  0.00000E+00  1.0E-07
  8.100E+00  4.98817E-03  9.81328E-21  3.50439E-04  0.00000E+00  1.0E-07
  8.200E+00  5.11188E-03  9.34916E-21  3.33864E-04  0.00000E+00  1.0E-07
  8.300E+00  5.23711E-03  8.91223E-21  3.18262E-04  0.00000E+00  1.0E-07
  8.400E+00  5.36383E-03  8.50061E-21  3.03562E-04  0.00000E+00  1.0E-07
  8.500E+00  5.49207E-03  8.11254E-21  2.89704E-04  0.00000E+00  1.0E-07
  8.600E+00  5.62181E-03  7.74644E-21  2.76630E-04  0.00000E+00  1.0E-07
  8.700E+00  5.75306E-03  7.40082E-21  2.64288E-04  0.00000E+00  1.0E-07
  8.800E+00  5.88581E-03  7.07433E-21  2.52629E-04  0.00000E+00  1.0E-07
  8.900E+00  6.02007E-03  6.76570E-21  2.41607E-04  0.00000E+00  1.0E-07
  9.000E+00  6.15583E-03  6.47377E-21  2.31182E-04  0.00000E+00  1.0E-07
  9.100E+00  6.29310E-03  6.19747E-21  2.21316E-04  0.00000E+00  1.0E-07
  9.200E+00  6.43187E-03  5.93581E-21  2.11972E-04  0.00000E+00  1.0E-07
  9.300E+00  6.57214E-03  5.68785E-21  2.03117E-04  0.00000E+00  1.0E-07
  9.400E+00  6.71392E-03  5.45275E-21  1.94721E-04  0.00000E+00  1.0E-07
  9.500E+00  6.85720E-03  5.22972E-21  1.86757E-04  0.00000E+00  1.0E-07
  9.600E+00  7.00198E-03  5.01802E-21  1.79197E-04  0.00000E+00  1.0E-07
  9.700E+00  7.14827E-03  4.81696E-21  1.72017E-04  0.00000E+00  1.0E-07
  9.800E+00  7.29605E-03  4.62590E-21  1.65194E-04  0.00000E+00  1.0E-07
  9.900E+00  7.44534E-03  4.44426E-21  1.58708E-04  0.00000E+00  1.0E-07
  1.000E+01  7.59612E-03  4.27149E-21  1.52538E-04  0.00000E+00  1.0E-07
  1.025E+01  7.97965E-03  3.87502E-21  1.38379E-04  0.00000E+00  1.0E-07
  1.050E+01  8.37255E-03  3.52366E-21  1.25832E-04  0.00000E+00  1.0E-07
  1.075E+01  8.77480E-03  3.21138E-21  1.14681E-04  0.00000E+00  1.0E-07
  1.100E+01  9.18641E-03  2.93308E-21  1.04742E-04  0.00000E+00  1.0E-07
  1.125E+01  9.60736E-03  2.68440E-21  9.58615E-05  0.00000E+00  1.0E-07
  1.150E+01  1.00376E-02  2.46162E-21  8.79062E-05  0.00000E+00  1.0E-07
  1.175E+01  1.04773E-02  2.26158E-21  8.07625E-05  0.00000E+00  1.0E-07
  1.200E+01  1.09262E-02  2.08154E-21  7.43330E-05  0.00000E+00  1.0E-07
  1.225E+01  1.13844E-02  1.91913E-21  6.85335E-05  0.00000E+00  1.0E-07
  1.250E+01  1.18520E-02  1.77233E-21  6.32911E-05  0.00000E+00  1.0E-07
  1.275E+01  1.23288E-02  1.63936E-21  5.85427E-05  0.00000E+00  1.0E-07
  1.300E+01  1.28150E-02  1.51869E-21  5.42334E-05  0.00000E+00  1.0E-07
  1.325E+01  1.33104E-02  1.40897E-21  5.03151E-05  0.00000E+00  1.0E-07
  1.350E+01  1.38150E-02  1.30902E-21  4.67461E-05  0.00000E+00  1.0E-07
  1.375E+01  1.43290E-02  1.21783E-21  4.34894E-05  0.00000E+00  1.0E-07
  1.400E+01  1.48521E-02  1.13447E-21  4.05128E-05  0.00000E+00  1.0E-07
  1.425E+01  1.53845E-02  1.05817E-21  3.77878E-05  0.00000E+00  1.0E-07
  1.450E+01  1.59262E-02  9.88197E-22  3.52892E-05  0.00000E+00  1.0E-07
  1.475E+01  1.64770E-02  9.23946E-22  3.29947E-05  0.00000E+00  1.0E-07
  1.500E+01  1.70371E-02  8.64857E-22  3.08846E-05  0.00000E+00  1.0E-07
  1.525E+01  1.76063E-02  8.10442E-22  2.89414E-05  0.00000E+00  1.0E-07
