 #
 # Subroutine ELSEPA. Elastic scattering of electrons and positrons
 #                    by neutral atoms and positive ions
 #
 # Projectile: electron
 # Kinetic energy = 3.70000E+06 eV = 1.35973E+05 a.u.
 #
 # WARNING: High-energy factorization with free-atom DF screening.
 #          Absorption, polarization and exchange corrections are
 #          switched off.
 #          Phase shifts are calculated for the bare nucleus.
 #          Scattering amplitudes are not evaluated.
 #
 # Element: Os,  Z =  76,  atomic weight = 1.90230E+02 g/mol
 #
 # Nuclear model: Fermi distribution
 #                Average radius = 6.15380E-13 cm
 #                Skin thickness = 5.46000E-14 cm
 #
 # Number of electrons = 76
 #
 # Total elastic cross section = 7.80414E-18 cm**2 = 2.78691E-01 a0**2
 # 1st transport cross section = 5.32440E-22 cm**2 = 1.90138E-05 a0**2
 # 2nd transport cross section = 1.42766E-21 cm**2 = 5.09825E-05 a0**2
 #
 #
 # Differential cross section:                       MU=(1-COS(THETA))/2
 #
 #  THETA        MU          DCS          DCS        Sherman      error
 #  (deg)                 (cm**2/sr)   (a0**2/sr)    function
 #----------------------------------------------------------------------
  0.000E+00  0.00000E+00  9.13385E-13  3.26176E+04  0.00000E+00  1.0E-05
  1.000E-04  7.61557E-13  9.13382E-13  3.26174E+04  0.00000E+00  1.0E-05
  1.250E-04  1.18994E-12  9.13380E-13  3.26174E+04  0.00000E+00  1.0E-05
  1.500E-04  1.71346E-12  9.13377E-13  3.26173E+04  0.00000E+00  1.0E-05
  1.750E-04  2.33225E-12  9.13375E-13  3.26172E+04  0.00000E+00  1.0E-05
  2.000E-04  3.04617E-12  9.13371E-13  3.26171E+04  0.00000E+00  1.0E-05
  2.250E-04  3.85530E-12  9.13368E-13  3.26170E+04  0.00000E+00  1.0E-05
  2.500E-04  4.75964E-12  9.13364E-13  3.26168E+04  0.00000E+00  1.0E-05
  2.750E-04  5.75917E-12  9.13359E-13  3.26167E+04  0.00000E+00  1.0E-05
  3.000E-04  6.85391E-12  9.13354E-13  3.26165E+04  0.00000E+00  1.0E-05
  3.250E-04  8.04379E-12  9.13349E-13  3.26163E+04  0.00000E+00  1.0E-05
  3.500E-04  9.32893E-12  9.13343E-13  3.26161E+04  0.00000E+00  1.0E-05
  3.750E-04  1.07092E-11  9.13337E-13  3.26159E+04  0.00000E+00  1.0E-05
  4.000E-04  1.21847E-11  9.13331E-13  3.26156E+04  0.00000E+00  1.0E-05
  4.250E-04  1.37554E-11  9.13324E-13  3.26154E+04  0.00000E+00  1.0E-05
  4.500E-04  1.54213E-11  9.13316E-13  3.26151E+04  0.00000E+00  1.0E-05
  4.750E-04  1.71823E-11  9.13308E-13  3.26148E+04  0.00000E+00  1.0E-05
  5.000E-04  1.90386E-11  9.13300E-13  3.26145E+04  0.00000E+00  1.0E-05
  5.250E-04  2.09900E-11  9.13291E-13  3.26142E+04  0.00000E+00  1.0E-05
  5.500E-04  2.30367E-11  9.13282E-13  3.26139E+04  0.00000E+00  1.0E-05
  5.750E-04  2.51785E-11  9.13273E-13  3.26136E+04  0.00000E+00  1.0E-05
  6.000E-04  2.74156E-11  9.13263E-13  3.26132E+04  0.00000E+00  1.0E-05
  6.250E-04  2.97478E-11  9.13252E-13  3.26128E+04  0.00000E+00  1.0E-05
  6.500E-04  3.21752E-11  9.13241E-13  3.26124E+04  0.00000E+00  1.0E-05
  6.750E-04  3.46979E-11  9.13230E-13  3.26120E+04  0.00000E+00  1.0E-05
  7.000E-04  3.73157E-11  9.13218E-13  3.26116E+04  0.00000E+00  1.0E-05
  7.250E-04  4.00286E-11  9.13206E-13  3.26112E+04  0.00000E+00  1.0E-05
  7.500E-04  4.28368E-11  9.13194E-13  3.26107E+04  0.00000E+00  1.0E-05
  7.750E-04  4.57402E-11  9.13181E-13  3.26103E+04  0.00000E+00  1.0E-05
  8.000E-04  4.87388E-11  9.13167E-13  3.26098E+04  0.00000E+00  1.0E-05
  8.250E-04  5.18325E-11  9.13153E-13  3.26093E+04  0.00000E+00  1.0E-05
  8.500E-04  5.50215E-11  9.13139E-13  3.26088E+04  0.00000E+00  1.0E-05
  8.750E-04  5.83057E-11  9.13124E-13  3.26083E+04  0.00000E+00  1.0E-05
  9.000E-04  6.16850E-11  9.13109E-13  3.26077E+04  0.00000E+00  1.0E-05
  9.250E-04  6.51595E-11  9.13094E-13  3.26072E+04  0.00000E+00  1.0E-05
  9.500E-04  6.87293E-11  9.13078E-13  3.26066E+04  0.00000E+00  1.0E-05
  9.750E-04  7.23943E-11  9.13061E-13  3.26060E+04  0.00000E+00  1.0E-05
  1.000E-03  7.61544E-11  9.13045E-13  3.26054E+04  0.00000E+00  1.0E-05
  1.250E-03  1.18991E-10  9.12853E-13  3.25986E+04  0.00000E+00  1.0E-05
  1.500E-03  1.71347E-10  9.12619E-13  3.25902E+04  0.00000E+00  1.0E-05
  1.750E-03  2.33223E-10  9.12342E-13  3.25803E+04  0.00000E+00  1.0E-05
  2.000E-03  3.04617E-10  9.12022E-13  3.25689E+04  0.00000E+00  1.0E-05
  2.250E-03  3.85531E-10  9.11661E-13  3.25560E+04  0.00000E+00  1.0E-05
  2.500E-03  4.75965E-10  9.11257E-13  3.25416E+04  0.00000E+00  1.0E-05
  2.750E-03  5.75917E-10  9.10810E-13  3.25256E+04  0.00000E+00  1.0E-05
  3.000E-03  6.85389E-10  9.10322E-13  3.25082E+04  0.00000E+00  1.0E-05
  3.250E-03  8.04380E-10  9.09792E-13  3.24893E+04  0.00000E+00  1.0E-05
  3.500E-03  9.32891E-10  9.09220E-13  3.24688E+04  0.00000E+00  1.0E-05
  3.750E-03  1.07092E-09  9.08606E-13  3.24469E+04  0.00000E+00  1.0E-05
  4.000E-03  1.21847E-09  9.07950E-13  3.24235E+04  0.00000E+00  1.0E-05
  4.250E-03  1.37554E-09  9.07253E-13  3.23986E+04  0.00000E+00  1.0E-05
  4.500E-03  1.54213E-09  9.06515E-13  3.23722E+04  0.00000E+00  1.0E-05
  4.750E-03  1.71823E-09  9.05736E-13  3.23444E+04  0.00000E+00  1.0E-05
  5.000E-03  1.90386E-09  9.04916E-13  3.23151E+04  0.00000E+00  1.0E-05
  5.250E-03  2.09900E-09  9.04055E-13  3.22844E+04  0.00000E+00  1.0E-05
  5.500E-03  2.30367E-09  9.03154E-13  3.22522E+04  0.00000E+00  1.0E-05
  5.750E-03  2.51785E-09  9.02212E-13  3.22186E+04  0.00000E+00  1.0E-05
  6.000E-03  2.74156E-09  9.01230E-13  3.21835E+04  0.00000E+00  1.0E-05
  6.250E-03  2.97478E-09  9.00209E-13  3.21470E+04  0.00000E+00  1.0E-05
  6.500E-03  3.21752E-09  8.99148E-13  3.21091E+04  0.00000E+00  1.0E-05
  6.750E-03  3.46978E-09  8.98047E-13  3.20698E+04  0.00000E+00  1.0E-05
  7.000E-03  3.73156E-09  8.96907E-13  3.20291E+04  0.00000E+00  1.0E-05
  7.250E-03  4.00286E-09  8.95729E-13  3.19871E+04  0.00000E+00  1.0E-05
  7.500E-03  4.28368E-09  8.94512E-13  3.19436E+04  0.00000E+00  1.0E-05
  7.750E-03  4.57402E-09  8.93257E-13  3.18988E+04  0.00000E+00  1.0E-05
  8.000E-03  4.87388E-09  8.91964E-13  3.18526E+04  0.00000E+00  1.0E-05
  8.250E-03  5.18326E-09  8.90633E-13  3.18051E+04  0.00000E+00  1.0E-05
  8.500E-03  5.50215E-09  8.89265E-13  3.17562E+04  0.00000E+00  1.0E-05
  8.750E-03  5.83057E-09  8.87859E-13  3.17060E+04  0.00000E+00  1.0E-05
  9.000E-03  6.16850E-09  8.86417E-13  3.16545E+04  0.00000E+00  1.0E-05
  9.250E-03  6.51596E-09  8.84939E-13  3.16017E+04  0.00000E+00  1.0E-05
  9.500E-03  6.87293E-09  8.83424E-13  3.15477E+04  0.00000E+00  1.0E-05
  9.750E-03  7.23942E-09  8.81874E-13  3.14923E+04  0.00000E+00  1.0E-05
  1.000E-02  7.61544E-09  8.80288E-13  3.14356E+04  0.00000E+00  1.0E-05
  1.250E-02  1.18991E-08  8.62563E-13  3.08027E+04  0.00000E+00  1.0E-05
  1.500E-02  1.71347E-08  8.41628E-13  3.00551E+04  0.00000E+00  1.0E-05
  1.750E-02  2.33223E-08  8.18082E-13  2.92142E+04  0.00000E+00  1.0E-05
  2.000E-02  3.04617E-08  7.92375E-13  2.82962E+04  0.00000E+00  1.0E-05
  2.250E-02  3.85531E-08  7.64811E-13  2.73119E+04  0.00000E+00  1.0E-05
  2.500E-02  4.75965E-08  7.35869E-13  2.62784E+04  0.00000E+00  1.0E-05
  2.750E-02  5.75917E-08  7.06115E-13  2.52158E+04  0.00000E+00  1.0E-05
  3.000E-02  6.85389E-08  6.75964E-13  2.41391E+04  0.00000E+00  1.0E-05
  3.250E-02  8.04380E-08  6.45630E-13  2.30559E+04  0.00000E+00  1.0E-05
  3.500E-02  9.32891E-08  6.15353E-13  2.19747E+04  0.00000E+00  1.0E-05
  3.750E-02  1.07092E-07  5.85614E-13  2.09127E+04  0.00000E+00  1.0E-05
  4.000E-02  1.21847E-07  5.56629E-13  1.98776E+04  0.00000E+00  1.0E-05
  4.250E-02  1.37554E-07  5.28492E-13  1.88728E+04  0.00000E+00  1.0E-05
  4.500E-02  1.54213E-07  5.01158E-13  1.78967E+04  0.00000E+00  1.0E-05
  4.750E-02  1.71823E-07  4.74980E-13  1.69618E+04  0.00000E+00  1.0E-05
  5.000E-02  1.90386E-07  4.50009E-13  1.60701E+04  0.00000E+00  1.0E-05
  5.250E-02  2.09900E-07  4.26264E-13  1.52222E+04  0.00000E+00  1.0E-05
  5.500E-02  2.30367E-07  4.03523E-13  1.44101E+04  0.00000E+00  1.0E-05
  5.750E-02  2.51785E-07  3.82033E-13  1.36426E+04  0.00000E+00  1.0E-05
  6.000E-02  2.74156E-07  3.61761E-13  1.29187E+04  0.00000E+00  1.0E-05
  6.250E-02  2.97478E-07  3.42665E-13  1.22368E+04  0.00000E+00  1.0E-05
  6.500E-02  3.21752E-07  3.24557E-13  1.15901E+04  0.00000E+00  1.0E-05
  6.750E-02  3.46978E-07  3.07517E-13  1.09816E+04  0.00000E+00  1.0E-05
  7.000E-02  3.73156E-07  2.91519E-13  1.04103E+04  0.00000E+00  1.0E-05
  7.250E-02  4.00286E-07  2.76503E-13  9.87410E+03  0.00000E+00  1.0E-05
  7.500E-02  4.28368E-07  2.62334E-13  9.36812E+03  0.00000E+00  1.0E-05
  7.750E-02  4.57402E-07  2.49000E-13  8.89194E+03  0.00000E+00  1.0E-05
  8.000E-02  4.87388E-07  2.36493E-13  8.44532E+03  0.00000E+00  1.0E-05
  8.250E-02  5.18325E-07  2.24759E-13  8.02627E+03  0.00000E+00  1.0E-05
  8.500E-02  5.50215E-07  2.13705E-13  7.63154E+03  0.00000E+00  1.0E-05
  8.750E-02  5.83057E-07  2.03279E-13  7.25921E+03  0.00000E+00  1.0E-05
  9.000E-02  6.16850E-07  1.93489E-13  6.90961E+03  0.00000E+00  1.0E-05
  9.250E-02  6.51596E-07  1.84290E-13  6.58113E+03  0.00000E+00  1.0E-05
  9.500E-02  6.87293E-07  1.75626E-13  6.27172E+03  0.00000E+00  1.0E-05
  9.750E-02  7.23942E-07  1.67426E-13  5.97889E+03  0.00000E+00  1.0E-05
  1.000E-01  7.61543E-07  1.59710E-13  5.70336E+03  0.00000E+00  1.0E-05
  1.250E-01  1.18991E-06  1.02479E-13  3.65958E+03  0.00000E+00  1.0E-05
  1.500E-01  1.71347E-06  6.78405E-14  2.42263E+03  0.00000E+00  1.0E-05
  1.750E-01  2.33223E-06  4.72938E-14  1.68889E+03  0.00000E+00  1.0E-05
  2.000E-01  3.04617E-06  3.40379E-14  1.21552E+03  0.00000E+00  1.0E-05
  2.250E-01  3.85531E-06  2.49962E-14  8.92629E+02  0.00000E+00  1.0E-05
  2.500E-01  4.75964E-06  1.87755E-14  6.70486E+02  0.00000E+00  1.0E-05
  2.750E-01  5.75916E-06  1.44192E-14  5.14919E+02  0.00000E+00  1.0E-05
  3.000E-01  6.85388E-06  1.12761E-14  4.02677E+02  0.00000E+00  1.0E-05
  3.250E-01  8.04378E-06  8.93273E-15  3.18994E+02  0.00000E+00  1.0E-05
  3.500E-01  9.32888E-06  7.15134E-15  2.55379E+02  0.00000E+00  1.0E-05
  3.750E-01  1.07092E-05  5.79294E-15  2.06870E+02  0.00000E+00  1.0E-05
  4.000E-01  1.21846E-05  4.73949E-15  1.69250E+02  0.00000E+00  1.0E-05
  4.250E-01  1.37553E-05  3.90845E-15  1.39573E+02  0.00000E+00  1.0E-05
  4.500E-01  1.54212E-05  3.24213E-15  1.15779E+02  0.00000E+00  1.0E-05
  4.750E-01  1.71822E-05  2.71054E-15  9.67952E+01  0.00000E+00  1.0E-05
  5.000E-01  1.90385E-05  2.28092E-15  8.14532E+01  0.00000E+00  1.0E-05
  5.250E-01  2.09899E-05  1.93437E-15  6.90776E+01  0.00000E+00  1.0E-05
  5.500E-01  2.30365E-05  1.64835E-15  5.88636E+01  0.00000E+00  1.0E-05
  5.750E-01  2.51783E-05  1.41310E-15  5.04627E+01  0.00000E+00  1.0E-05
  6.000E-01  2.74153E-05  1.21826E-15  4.35048E+01  0.00000E+00  1.0E-05
  6.250E-01  2.97475E-05  1.05599E-15  3.77100E+01  0.00000E+00  1.0E-05
  6.500E-01  3.21749E-05  9.20101E-16  3.28574E+01  0.00000E+00  1.0E-05
  6.750E-01  3.46974E-05  8.05257E-16  2.87563E+01  0.00000E+00  1.0E-05
  7.000E-01  3.73152E-05  7.08112E-16  2.52872E+01  0.00000E+00  1.0E-05
  7.250E-01  4.00281E-05  6.25633E-16  2.23418E+01  0.00000E+00  1.0E-05
  7.500E-01  4.28362E-05  5.55104E-16  1.98231E+01  0.00000E+00  1.0E-05
  7.750E-01  4.57395E-05  4.94485E-16  1.76584E+01  0.00000E+00  1.0E-05
  8.000E-01  4.87380E-05  4.42129E-16  1.57887E+01  0.00000E+00  1.0E-05
  8.250E-01  5.18317E-05  3.96671E-16  1.41654E+01  0.00000E+00  1.0E-05
  8.500E-01  5.50205E-05  3.56964E-16  1.27474E+01  0.00000E+00  1.0E-05
  8.750E-01  5.83045E-05  3.22114E-16  1.15029E+01  0.00000E+00  1.0E-05
  9.000E-01  6.16838E-05  2.91475E-16  1.04088E+01  0.00000E+00  1.0E-05
  9.250E-01  6.51582E-05  2.64444E-16  9.44347E+00  0.00000E+00  1.0E-05
  9.500E-01  6.87277E-05  2.40498E-16  8.58833E+00  0.00000E+00  1.0E-05
  9.750E-01  7.23925E-05  2.19188E-16  7.82736E+00  0.00000E+00  1.0E-05
  1.000E+00  7.61524E-05  2.00216E-16  7.14983E+00  0.00000E+00  9.7E-06
  1.100E+00  9.21439E-05  1.42177E-16  5.07723E+00  0.00000E+00  7.2E-06
  1.200E+00  1.09658E-04  1.03764E-16  3.70549E+00  0.00000E+00  3.9E-06
  1.300E+00  1.28695E-04  7.74706E-17  2.76652E+00  0.00000E+00  7.5E-07
  1.400E+00  1.49255E-04  5.89448E-17  2.10496E+00  0.00000E+00  1.6E-06
  1.500E+00  1.71338E-04  4.56788E-17  1.63122E+00  0.00000E+00  2.8E-06
  1.600E+00  1.94942E-04  3.59518E-17  1.28386E+00  0.00000E+00  3.0E-06
  1.700E+00  2.20070E-04  2.86785E-17  1.02413E+00  0.00000E+00  2.4E-06
  1.800E+00  2.46720E-04  2.31452E-17  8.26528E-01  0.00000E+00  1.3E-06
  1.900E+00  2.74892E-04  1.88890E-17  6.74539E-01  0.00000E+00  1.9E-07
  2.000E+00  3.04586E-04  1.55704E-17  5.56029E-01  0.00000E+00  7.3E-07
  2.100E+00  3.35803E-04  1.29512E-17  4.62495E-01  0.00000E+00  1.3E-06
  2.200E+00  3.68542E-04  1.08565E-17  3.87692E-01  0.00000E+00  1.4E-06
  2.300E+00  4.02802E-04  9.17033E-18  3.27479E-01  0.00000E+00  1.1E-06
  2.400E+00  4.38585E-04  7.80033E-18  2.78555E-01  0.00000E+00  6.0E-07
  2.500E+00  4.75889E-04  6.67768E-18  2.38464E-01  0.00000E+00  1.0E-07
  2.600E+00  5.14715E-04  5.74932E-18  2.05312E-01  0.00000E+00  4.2E-07
  2.700E+00  5.55063E-04  4.97733E-18  1.77744E-01  0.00000E+00  6.9E-07
  2.800E+00  5.96931E-04  4.33127E-18  1.54672E-01  0.00000E+00  7.4E-07
  2.900E+00  6.40321E-04  3.78717E-18  1.35242E-01  0.00000E+00  5.9E-07
  3.000E+00  6.85233E-04  3.32586E-18  1.18769E-01  0.00000E+00  3.2E-07
  3.100E+00  7.31665E-04  2.93288E-18  1.04735E-01  0.00000E+00  1.0E-07
  3.200E+00  7.79618E-04  2.59654E-18  9.27240E-02  0.00000E+00  2.7E-07
  3.300E+00  8.29092E-04  2.30728E-18  8.23946E-02  0.00000E+00  4.3E-07
  3.400E+00  8.80086E-04  2.05726E-18  7.34661E-02  0.00000E+00  4.6E-07
  3.500E+00  9.32601E-04  1.84023E-18  6.57160E-02  0.00000E+00  3.6E-07
  3.600E+00  9.86636E-04  1.65122E-18  5.89660E-02  0.00000E+00  1.8E-07
  3.700E+00  1.04219E-03  1.48595E-18  5.30643E-02  0.00000E+00  1.0E-07
  3.800E+00  1.09927E-03  1.34091E-18  4.78846E-02  0.00000E+00  1.9E-07
  3.900E+00  1.15786E-03  1.21311E-18  4.33210E-02  0.00000E+00  2.9E-07
  4.000E+00  1.21797E-03  1.10025E-18  3.92905E-02  0.00000E+00  3.0E-07
  4.100E+00  1.27961E-03  1.00025E-18  3.57197E-02  0.00000E+00  2.3E-07
  4.200E+00  1.34276E-03  9.11401E-19  3.25467E-02  0.00000E+00  1.1E-07
  4.300E+00  1.40743E-03  8.32173E-19  2.97174E-02  0.00000E+00  1.0E-07
  4.400E+00  1.47362E-03  7.61400E-19  2.71901E-02  0.00000E+00  1.4E-07
  4.500E+00  1.54133E-03  6.98019E-19  2.49267E-02  0.00000E+00  2.1E-07
  4.600E+00  1.61056E-03  6.41119E-19  2.28948E-02  0.00000E+00  2.1E-07
  4.700E+00  1.68131E-03  5.89889E-19  2.10653E-02  0.00000E+00  1.6E-07
  4.800E+00  1.75357E-03  5.43690E-19  1.94155E-02  0.00000E+00  1.0E-07
  4.900E+00  1.82735E-03  5.01942E-19  1.79247E-02  0.00000E+00  1.0E-07
  5.000E+00  1.90265E-03  4.64138E-19  1.65747E-02  0.00000E+00  1.1E-07
  5.100E+00  1.97947E-03  4.29827E-19  1.53494E-02  0.00000E+00  1.5E-07
  5.200E+00  2.05780E-03  3.98635E-19  1.42355E-02  0.00000E+00  1.5E-07
  5.300E+00  2.13765E-03  3.70232E-19  1.32212E-02  0.00000E+00  1.1E-07
  5.400E+00  2.21902E-03  3.44325E-19  1.22961E-02  0.00000E+00  1.0E-07
  5.500E+00  2.30190E-03  3.20648E-19  1.14505E-02  0.00000E+00  1.0E-07
  5.600E+00  2.38630E-03  2.98975E-19  1.06766E-02  0.00000E+00  1.0E-07
  5.700E+00  2.47222E-03  2.79111E-19  9.96724E-03  0.00000E+00  1.2E-07
  5.800E+00  2.55965E-03  2.60877E-19  9.31610E-03  0.00000E+00  1.2E-07
  5.900E+00  2.64859E-03  2.44113E-19  8.71744E-03  0.00000E+00  1.0E-07
  6.000E+00  2.73905E-03  2.28677E-19  8.16621E-03  0.00000E+00  1.0E-07
  6.100E+00  2.83103E-03  2.14448E-19  7.65809E-03  0.00000E+00  1.0E-07
  6.200E+00  2.92452E-03  2.01315E-19  7.18910E-03  0.00000E+00  1.0E-07
  6.300E+00  3.01952E-03  1.89177E-19  6.75564E-03  0.00000E+00  1.0E-07
  6.400E+00  3.11604E-03  1.77942E-19  6.35444E-03  0.00000E+00  1.0E-07
  6.500E+00  3.21407E-03  1.67535E-19  5.98277E-03  0.00000E+00  1.0E-07
  6.600E+00  3.31362E-03  1.57881E-19  5.63804E-03  0.00000E+00  1.0E-07
  6.700E+00  3.41468E-03  1.48918E-19  5.31795E-03  0.00000E+00  1.0E-07
  6.800E+00  3.51725E-03  1.40583E-19  5.02033E-03  0.00000E+00  1.0E-07
  6.900E+00  3.62133E-03  1.32828E-19  4.74337E-03  0.00000E+00  1.0E-07
  7.000E+00  3.72692E-03  1.25604E-19  4.48540E-03  0.00000E+00  1.0E-07
  7.100E+00  3.83403E-03  1.18868E-19  4.24485E-03  0.00000E+00  1.0E-07
  7.200E+00  3.94265E-03  1.12579E-19  4.02029E-03  0.00000E+00  1.0E-07
  7.300E+00  4.05278E-03  1.06704E-19  3.81049E-03  0.00000E+00  1.0E-07
  7.400E+00  4.16442E-03  1.01211E-19  3.61430E-03  0.00000E+00  1.0E-07
  7.500E+00  4.27757E-03  9.60690E-20  3.43069E-03  0.00000E+00  1.0E-07
  7.600E+00  4.39223E-03  9.12518E-20  3.25866E-03  0.00000E+00  1.0E-07
  7.700E+00  4.50840E-03  8.67349E-20  3.09736E-03  0.00000E+00  1.0E-07
  7.800E+00  4.62608E-03  8.24966E-20  2.94601E-03  0.00000E+00  1.0E-07
  7.900E+00  4.74527E-03  7.85163E-20  2.80387E-03  0.00000E+00  1.0E-07
  8.000E+00  4.86597E-03  7.47751E-20  2.67027E-03  0.00000E+00  1.0E-07
  8.100E+00  4.98817E-03  7.12558E-20  2.54459E-03  0.00000E+00  1.0E-07
  8.200E+00  5.11188E-03  6.79431E-20  2.42629E-03  0.00000E+00  1.0E-07
  8.300E+00  5.23711E-03  6.48226E-20  2.31486E-03  0.00000E+00  1.0E-07
  8.400E+00  5.36383E-03  6.18809E-20  2.20981E-03  0.00000E+00  1.0E-07
  8.500E+00  5.49207E-03  5.91056E-20  2.11070E-03  0.00000E+00  1.0E-07
  8.600E+00  5.62181E-03  5.64857E-20  2.01714E-03  0.00000E+00  1.0E-07
  8.700E+00  5.75306E-03  5.40109E-20  1.92876E-03  0.00000E+00  1.0E-07
  8.800E+00  5.88581E-03  5.16716E-20  1.84523E-03  0.00000E+00  1.0E-07
  8.900E+00  6.02007E-03  4.94588E-20  1.76620E-03  0.00000E+00  1.0E-07
  9.000E+00  6.15583E-03  4.73644E-20  1.69141E-03  0.00000E+00  1.0E-07
  9.100E+00  6.29310E-03  4.53810E-20  1.62058E-03  0.00000E+00  1.0E-07
  9.200E+00  6.43187E-03  4.35015E-20  1.55347E-03  0.00000E+00  1.0E-07
  9.300E+00  6.57214E-03  4.17193E-20  1.48982E-03  0.00000E+00  1.0E-07
  9.400E+00  6.71392E-03  4.00285E-20  1.42944E-03  0.00000E+00  1.0E-07
  9.500E+00  6.85720E-03  3.84235E-20  1.37213E-03  0.00000E+00  1.0E-07
  9.600E+00  7.00198E-03  3.68991E-20  1.31769E-03  0.00000E+00  1.0E-07
  9.700E+00  7.14827E-03  3.54505E-20  1.26596E-03  0.00000E+00  1.0E-07
  9.800E+00  7.29605E-03  3.40731E-20  1.21677E-03  0.00000E+00  1.0E-07
  9.900E+00  7.44534E-03  3.27628E-20  1.16998E-03  0.00000E+00  1.0E-07
  1.000E+01  7.59612E-03  3.15157E-20  1.12545E-03  0.00000E+00  1.0E-07
  1.025E+01  7.97965E-03  2.86511E-20  1.02315E-03  0.00000E+00  1.0E-07
  1.050E+01  8.37255E-03  2.61086E-20  9.32356E-04  0.00000E+00  1.0E-07
  1.075E+01  8.77480E-03  2.38456E-20  8.51542E-04  0.00000E+00  1.0E-07
  1.100E+01  9.18641E-03  2.18258E-20  7.79414E-04  0.00000E+00  1.0E-07
  1.125E+01  9.60736E-03  2.00184E-20  7.14868E-04  0.00000E+00  1.0E-07
  1.150E+01  1.00376E-02  1.83968E-20  6.56963E-04  0.00000E+00  1.0E-07
  1.175E+01  1.04773E-02  1.69387E-20  6.04891E-04  0.00000E+00  1.0E-07
  1.200E+01  1.09262E-02  1.56244E-20  5.57956E-04  0.00000E+00  1.0E-07
  1.225E+01  1.13844E-02  1.44371E-20  5.15559E-04  0.00000E+00  1.0E-07
  1.250E+01  1.18520E-02  1.33624E-20  4.77178E-04  0.00000E+00  1.0E-07
  1.275E+01  1.23288E-02  1.23875E-20  4.42364E-04  0.00000E+00  1.0E-07
  1.300E+01  1.28150E-02  1.15014E-20  4.10723E-04  0.00000E+00  1.0E-07
  1.325E+01  1.33104E-02  1.06945E-20  3.81909E-04  0.00000E+00  1.0E-07
  1.350E+01  1.38150E-02  9.95859E-21  3.55628E-04  0.00000E+00  1.0E-07
  1.375E+01  1.43290E-02  9.28604E-21  3.31611E-04  0.00000E+00  1.0E-07
  1.400E+01  1.48521E-02  8.67041E-21  3.09626E-04  0.00000E+00  1.0E-07
  1.425E+01  1.53845E-02  8.10601E-21  2.89471E-04  0.00000E+00  1.0E-07
  1.450E+01  1.59262E-02  7.58776E-21  2.70964E-04  0.00000E+00  1.0E-07
  1.475E+01  1.64770E-02  7.11114E-21  2.53943E-04  0.00000E+00  1.0E-07
  1.500E+01  1.70371E-02  6.67215E-21  2.38267E-04  0.00000E+00  1.0E-07
  1.525E+01  1.76063E-02  6.26729E-21  2.23809E-04  0.00000E+00  1.0E-07
