 #
 # Subroutine ELSEPA. Elastic scattering of electrons and positrons
 #                    by neutral atoms and positive ions
 #
 # Projectile: electron
 # Kinetic energy = 3.70000E+06 eV = 1.35973E+05 a.u.
 #
 # WARNING: High-energy factorization with free-atom DF screening.
 #          Absorption, polarization and exchange corrections are
 #          switched off.
 #          Phase shifts are calculated for the bare nucleus.
 #          Scattering amplitudes are not evaluated.
 #
 # Element:  P,  Z =  15,  atomic weight = 3.09738E+01 g/mol
 #
 # Nuclear model: Fermi distribution
 #                Average radius = 3.36033E-13 cm
 #                Skin thickness = 5.46000E-14 cm
 #
 # Number of electrons = 15
 #
 # Total elastic cross section = 9.91916E-19 cm**2 = 3.54220E-02 a0**2
 # 1st transport cross section = 1.95474E-23 cm**2 = 6.98051E-07 a0**2
 # 2nd transport cross section = 5.57061E-23 cm**2 = 1.98930E-06 a0**2
 #
 #
 # Differential cross section:                       MU=(1-COS(THETA))/2
 #
 #  THETA        MU          DCS          DCS        Sherman      error
 #  (deg)                 (cm**2/sr)   (a0**2/sr)    function
 #----------------------------------------------------------------------
  0.000E+00  0.00000E+00  2.03571E-13  7.26966E+03  0.00000E+00  1.0E-05
  1.000E-04  7.61557E-13  2.03570E-13  7.26963E+03  0.00000E+00  1.0E-05
  1.250E-04  1.18994E-12  2.03570E-13  7.26962E+03  0.00000E+00  1.0E-05
  1.500E-04  1.71346E-12  2.03569E-13  7.26959E+03  0.00000E+00  1.0E-05
  1.750E-04  2.33225E-12  2.03569E-13  7.26957E+03  0.00000E+00  1.0E-05
  2.000E-04  3.04617E-12  2.03568E-13  7.26954E+03  0.00000E+00  1.0E-05
  2.250E-04  3.85530E-12  2.03567E-13  7.26951E+03  0.00000E+00  1.0E-05
  2.500E-04  4.75964E-12  2.03566E-13  7.26948E+03  0.00000E+00  1.0E-05
  2.750E-04  5.75917E-12  2.03565E-13  7.26944E+03  0.00000E+00  1.0E-05
  3.000E-04  6.85391E-12  2.03564E-13  7.26940E+03  0.00000E+00  1.0E-05
  3.250E-04  8.04379E-12  2.03563E-13  7.26935E+03  0.00000E+00  1.0E-05
  3.500E-04  9.32893E-12  2.03561E-13  7.26930E+03  0.00000E+00  1.0E-05
  3.750E-04  1.07092E-11  2.03560E-13  7.26925E+03  0.00000E+00  1.0E-05
  4.000E-04  1.21847E-11  2.03558E-13  7.26919E+03  0.00000E+00  1.0E-05
  4.250E-04  1.37554E-11  2.03556E-13  7.26913E+03  0.00000E+00  1.0E-05
  4.500E-04  1.54213E-11  2.03555E-13  7.26907E+03  0.00000E+00  1.0E-05
  4.750E-04  1.71823E-11  2.03553E-13  7.26900E+03  0.00000E+00  1.0E-05
  5.000E-04  1.90386E-11  2.03551E-13  7.26893E+03  0.00000E+00  1.0E-05
  5.250E-04  2.09900E-11  2.03549E-13  7.26886E+03  0.00000E+00  1.0E-05
  5.500E-04  2.30367E-11  2.03547E-13  7.26878E+03  0.00000E+00  1.0E-05
  5.750E-04  2.51785E-11  2.03544E-13  7.26870E+03  0.00000E+00  1.0E-05
  6.000E-04  2.74156E-11  2.03542E-13  7.26862E+03  0.00000E+00  1.0E-05
  6.250E-04  2.97478E-11  2.03539E-13  7.26853E+03  0.00000E+00  1.0E-05
  6.500E-04  3.21752E-11  2.03537E-13  7.26844E+03  0.00000E+00  1.0E-05
  6.750E-04  3.46979E-11  2.03534E-13  7.26834E+03  0.00000E+00  1.0E-05
  7.000E-04  3.73157E-11  2.03531E-13  7.26824E+03  0.00000E+00  1.0E-05
  7.250E-04  4.00286E-11  2.03529E-13  7.26814E+03  0.00000E+00  1.0E-05
  7.500E-04  4.28368E-11  2.03526E-13  7.26803E+03  0.00000E+00  1.0E-05
  7.750E-04  4.57402E-11  2.03523E-13  7.26792E+03  0.00000E+00  1.0E-05
  8.000E-04  4.87388E-11  2.03519E-13  7.26781E+03  0.00000E+00  1.0E-05
  8.250E-04  5.18325E-11  2.03516E-13  7.26769E+03  0.00000E+00  1.0E-05
  8.500E-04  5.50215E-11  2.03513E-13  7.26757E+03  0.00000E+00  1.0E-05
  8.750E-04  5.83057E-11  2.03509E-13  7.26745E+03  0.00000E+00  1.0E-05
  9.000E-04  6.16850E-11  2.03506E-13  7.26732E+03  0.00000E+00  1.0E-05
  9.250E-04  6.51595E-11  2.03502E-13  7.26719E+03  0.00000E+00  1.0E-05
  9.500E-04  6.87293E-11  2.03498E-13  7.26706E+03  0.00000E+00  1.0E-05
  9.750E-04  7.23943E-11  2.03494E-13  7.26692E+03  0.00000E+00  1.0E-05
  1.000E-03  7.61544E-11  2.03490E-13  7.26678E+03  0.00000E+00  1.0E-05
  1.250E-03  1.18991E-10  2.03445E-13  7.26516E+03  0.00000E+00  1.0E-05
  1.500E-03  1.71347E-10  2.03390E-13  7.26320E+03  0.00000E+00  1.0E-05
  1.750E-03  2.33223E-10  2.03325E-13  7.26087E+03  0.00000E+00  1.0E-05
  2.000E-03  3.04617E-10  2.03250E-13  7.25820E+03  0.00000E+00  1.0E-05
  2.250E-03  3.85531E-10  2.03165E-13  7.25516E+03  0.00000E+00  1.0E-05
  2.500E-03  4.75965E-10  2.03070E-13  7.25178E+03  0.00000E+00  1.0E-05
  2.750E-03  5.75917E-10  2.02966E-13  7.24804E+03  0.00000E+00  1.0E-05
  3.000E-03  6.85389E-10  2.02851E-13  7.24395E+03  0.00000E+00  1.0E-05
  3.250E-03  8.04380E-10  2.02727E-13  7.23951E+03  0.00000E+00  1.0E-05
  3.500E-03  9.32891E-10  2.02593E-13  7.23471E+03  0.00000E+00  1.0E-05
  3.750E-03  1.07092E-09  2.02449E-13  7.22957E+03  0.00000E+00  1.0E-05
  4.000E-03  1.21847E-09  2.02295E-13  7.22408E+03  0.00000E+00  1.0E-05
  4.250E-03  1.37554E-09  2.02132E-13  7.21825E+03  0.00000E+00  1.0E-05
  4.500E-03  1.54213E-09  2.01958E-13  7.21206E+03  0.00000E+00  1.0E-05
  4.750E-03  1.71823E-09  2.01775E-13  7.20553E+03  0.00000E+00  1.0E-05
  5.000E-03  1.90386E-09  2.01583E-13  7.19867E+03  0.00000E+00  1.0E-05
  5.250E-03  2.09900E-09  2.01381E-13  7.19145E+03  0.00000E+00  1.0E-05
  5.500E-03  2.30367E-09  2.01170E-13  7.18389E+03  0.00000E+00  1.0E-05
  5.750E-03  2.51785E-09  2.00949E-13  7.17600E+03  0.00000E+00  1.0E-05
  6.000E-03  2.74156E-09  2.00718E-13  7.16778E+03  0.00000E+00  1.0E-05
  6.250E-03  2.97478E-09  2.00478E-13  7.15921E+03  0.00000E+00  1.0E-05
  6.500E-03  3.21752E-09  2.00229E-13  7.15031E+03  0.00000E+00  1.0E-05
  6.750E-03  3.46978E-09  1.99971E-13  7.14109E+03  0.00000E+00  1.0E-05
  7.000E-03  3.73156E-09  1.99703E-13  7.13151E+03  0.00000E+00  1.0E-05
  7.250E-03  4.00286E-09  1.99426E-13  7.12162E+03  0.00000E+00  1.0E-05
  7.500E-03  4.28368E-09  1.99140E-13  7.11141E+03  0.00000E+00  1.0E-05
  7.750E-03  4.57402E-09  1.98845E-13  7.10087E+03  0.00000E+00  1.0E-05
  8.000E-03  4.87388E-09  1.98540E-13  7.09000E+03  0.00000E+00  1.0E-05
  8.250E-03  5.18326E-09  1.98227E-13  7.07882E+03  0.00000E+00  1.0E-05
  8.500E-03  5.50215E-09  1.97906E-13  7.06734E+03  0.00000E+00  1.0E-05
  8.750E-03  5.83057E-09  1.97574E-13  7.05550E+03  0.00000E+00  1.0E-05
  9.000E-03  6.16850E-09  1.97234E-13  7.04336E+03  0.00000E+00  1.0E-05
  9.250E-03  6.51596E-09  1.96886E-13  7.03094E+03  0.00000E+00  1.0E-05
  9.500E-03  6.87293E-09  1.96529E-13  7.01818E+03  0.00000E+00  1.0E-05
  9.750E-03  7.23942E-09  1.96163E-13  7.00511E+03  0.00000E+00  1.0E-05
  1.000E-02  7.61544E-09  1.95789E-13  6.99176E+03  0.00000E+00  1.0E-05
  1.250E-02  1.18991E-08  1.91597E-13  6.84207E+03  0.00000E+00  1.0E-05
  1.500E-02  1.71347E-08  1.86644E-13  6.66517E+03  0.00000E+00  1.0E-05
  1.750E-02  2.33223E-08  1.81019E-13  6.46432E+03  0.00000E+00  1.0E-05
  2.000E-02  3.04617E-08  1.74822E-13  6.24301E+03  0.00000E+00  1.0E-05
  2.250E-02  3.85531E-08  1.68154E-13  6.00489E+03  0.00000E+00  1.0E-05
  2.500E-02  4.75965E-08  1.61119E-13  5.75365E+03  0.00000E+00  1.0E-05
  2.750E-02  5.75917E-08  1.53816E-13  5.49288E+03  0.00000E+00  1.0E-05
  3.000E-02  6.85389E-08  1.46344E-13  5.22604E+03  0.00000E+00  1.0E-05
  3.250E-02  8.04380E-08  1.38791E-13  4.95632E+03  0.00000E+00  1.0E-05
  3.500E-02  9.32891E-08  1.31068E-13  4.68053E+03  0.00000E+00  1.0E-05
  3.750E-02  1.07092E-07  1.23367E-13  4.40550E+03  0.00000E+00  1.0E-05
  4.000E-02  1.21847E-07  1.16091E-13  4.14568E+03  0.00000E+00  1.0E-05
  4.250E-02  1.37554E-07  1.09257E-13  3.90165E+03  0.00000E+00  1.0E-05
  4.500E-02  1.54213E-07  1.02051E-13  3.64433E+03  0.00000E+00  1.0E-05
  4.750E-02  1.71823E-07  9.53615E-14  3.40542E+03  0.00000E+00  1.0E-05
  5.000E-02  1.90386E-07  8.91770E-14  3.18457E+03  0.00000E+00  1.0E-05
  5.250E-02  2.09900E-07  8.30944E-14  2.96736E+03  0.00000E+00  1.0E-05
  5.500E-02  2.30367E-07  7.72590E-14  2.75897E+03  0.00000E+00  1.0E-05
  5.750E-02  2.51785E-07  7.19161E-14  2.56817E+03  0.00000E+00  1.0E-05
  6.000E-02  2.74156E-07  6.69436E-14  2.39060E+03  0.00000E+00  1.0E-05
  6.250E-02  2.97478E-07  6.20514E-14  2.21589E+03  0.00000E+00  1.0E-05
  6.500E-02  3.21752E-07  5.75956E-14  2.05678E+03  0.00000E+00  1.0E-05
  6.750E-02  3.46978E-07  5.35376E-14  1.91186E+03  0.00000E+00  1.0E-05
  7.000E-02  3.73156E-07  4.96186E-14  1.77191E+03  0.00000E+00  1.0E-05
  7.250E-02  4.00286E-07  4.59980E-14  1.64262E+03  0.00000E+00  1.0E-05
  7.500E-02  4.28368E-07  4.27061E-14  1.52506E+03  0.00000E+00  1.0E-05
  7.750E-02  4.57402E-07  3.96432E-14  1.41569E+03  0.00000E+00  1.0E-05
  8.000E-02  4.87388E-07  3.67544E-14  1.31252E+03  0.00000E+00  1.0E-05
  8.250E-02  5.18325E-07  3.41273E-14  1.21871E+03  0.00000E+00  1.0E-05
  8.500E-02  5.50215E-07  3.17359E-14  1.13331E+03  0.00000E+00  1.0E-05
  8.750E-02  5.83057E-07  2.94601E-14  1.05204E+03  0.00000E+00  1.0E-05
  9.000E-02  6.16850E-07  2.73856E-14  9.77956E+02  0.00000E+00  1.0E-05
  9.250E-02  6.51596E-07  2.54941E-14  9.10412E+02  0.00000E+00  1.0E-05
  9.500E-02  6.87293E-07  2.37351E-14  8.47597E+02  0.00000E+00  1.0E-05
  9.750E-02  7.23942E-07  2.21065E-14  7.89437E+02  0.00000E+00  1.0E-05
  1.000E-01  7.61543E-07  2.06180E-14  7.36284E+02  0.00000E+00  1.0E-05
  1.250E-01  1.18991E-06  1.07844E-14  3.85119E+02  0.00000E+00  1.0E-05
  1.500E-01  1.71347E-06  6.22233E-15  2.22203E+02  0.00000E+00  1.0E-05
  1.750E-01  2.33223E-06  3.92203E-15  1.40058E+02  0.00000E+00  1.0E-05
  2.000E-01  3.04617E-06  2.64864E-15  9.45848E+01  0.00000E+00  1.0E-05
  2.250E-01  3.85531E-06  1.88120E-15  6.71788E+01  0.00000E+00  1.0E-05
  2.500E-01  4.75964E-06  1.38449E-15  4.94411E+01  0.00000E+00  1.0E-05
  2.750E-01  5.75916E-06  1.04501E-15  3.73180E+01  0.00000E+00  1.0E-05
  3.000E-01  6.85388E-06  8.03623E-16  2.86979E+01  0.00000E+00  1.0E-05
  3.250E-01  8.04378E-06  6.26942E-16  2.23885E+01  0.00000E+00  1.0E-05
  3.500E-01  9.32888E-06  4.93857E-16  1.76359E+01  0.00000E+00  1.0E-05
  3.750E-01  1.07092E-05  3.94488E-16  1.40874E+01  0.00000E+00  1.0E-05
  4.000E-01  1.21846E-05  3.16972E-16  1.13193E+01  0.00000E+00  1.0E-05
  4.250E-01  1.37553E-05  2.57112E-16  9.18163E+00  0.00000E+00  1.0E-05
  4.500E-01  1.54212E-05  2.10367E-16  7.51233E+00  0.00000E+00  1.0E-05
  4.750E-01  1.71822E-05  1.73406E-16  6.19244E+00  0.00000E+00  1.0E-05
  5.000E-01  1.90385E-05  1.43774E-16  5.13427E+00  0.00000E+00  1.0E-05
  5.250E-01  2.09899E-05  1.20118E-16  4.28949E+00  0.00000E+00  1.0E-05
  5.500E-01  2.30365E-05  1.01043E-16  3.60830E+00  0.00000E+00  1.0E-05
  5.750E-01  2.51783E-05  8.55105E-17  3.05364E+00  0.00000E+00  1.0E-05
  6.000E-01  2.74153E-05  7.27818E-17  2.59909E+00  0.00000E+00  1.0E-05
  6.250E-01  2.97475E-05  6.23164E-17  2.22536E+00  0.00000E+00  1.0E-05
  6.500E-01  3.21749E-05  5.36516E-17  1.91593E+00  0.00000E+00  1.0E-05
  6.750E-01  3.46974E-05  4.64237E-17  1.65782E+00  0.00000E+00  1.0E-05
  7.000E-01  3.73152E-05  4.03680E-17  1.44157E+00  0.00000E+00  1.0E-05
  7.250E-01  4.00281E-05  3.52698E-17  1.25951E+00  0.00000E+00  1.0E-05
  7.500E-01  4.28362E-05  3.09534E-17  1.10537E+00  0.00000E+00  1.0E-05
  7.750E-01  4.57395E-05  2.72772E-17  9.74086E-01  0.00000E+00  1.0E-05
  8.000E-01  4.87380E-05  2.41339E-17  8.61836E-01  0.00000E+00  1.0E-05
  8.250E-01  5.18317E-05  2.14336E-17  7.65408E-01  0.00000E+00  1.0E-05
  8.500E-01  5.50205E-05  1.91033E-17  6.82192E-01  0.00000E+00  1.0E-05
  8.750E-01  5.83045E-05  1.70828E-17  6.10038E-01  0.00000E+00  1.0E-05
  9.000E-01  6.16838E-05  1.53250E-17  5.47266E-01  0.00000E+00  1.0E-05
  9.250E-01  6.51582E-05  1.37899E-17  4.92445E-01  0.00000E+00  1.0E-05
  9.500E-01  6.87277E-05  1.24441E-17  4.44386E-01  0.00000E+00  1.0E-05
  9.750E-01  7.23925E-05  1.12599E-17  4.02098E-01  0.00000E+00  1.0E-05
  1.000E+00  7.61524E-05  1.02149E-17  3.64780E-01  0.00000E+00  2.3E-05
  1.100E+00  9.21439E-05  7.08158E-18  2.52888E-01  0.00000E+00  1.7E-05
  1.200E+00  1.09658E-04  5.06971E-18  1.81043E-01  0.00000E+00  9.5E-06
  1.300E+00  1.28695E-04  3.72784E-18  1.33123E-01  0.00000E+00  2.0E-06
  1.400E+00  1.49255E-04  2.80356E-18  1.00117E-01  0.00000E+00  3.7E-06
  1.500E+00  1.71338E-04  2.14947E-18  7.67589E-02  0.00000E+00  6.7E-06
  1.600E+00  1.94942E-04  1.67569E-18  5.98401E-02  0.00000E+00  7.1E-06
  1.700E+00  2.20070E-04  1.32554E-18  4.73358E-02  0.00000E+00  5.7E-06
  1.800E+00  2.46720E-04  1.06218E-18  3.79310E-02  0.00000E+00  3.3E-06
  1.900E+00  2.74892E-04  8.60983E-19  3.07463E-02  0.00000E+00  6.0E-07
  2.000E+00  3.04586E-04  7.05157E-19  2.51816E-02  0.00000E+00  1.7E-06
  2.100E+00  3.35803E-04  5.82958E-19  2.08178E-02  0.00000E+00  3.0E-06
  2.200E+00  3.68542E-04  4.86049E-19  1.73571E-02  0.00000E+00  3.2E-06
  2.300E+00  4.02802E-04  4.08413E-19  1.45847E-02  0.00000E+00  2.6E-06
  2.400E+00  4.38585E-04  3.45632E-19  1.23428E-02  0.00000E+00  1.5E-06
  2.500E+00  4.75889E-04  2.94432E-19  1.05144E-02  0.00000E+00  2.1E-07
  2.600E+00  5.14715E-04  2.52345E-19  9.01141E-03  0.00000E+00  9.7E-07
  2.700E+00  5.55063E-04  2.17497E-19  7.76696E-03  0.00000E+00  1.6E-06
  2.800E+00  5.96931E-04  1.88447E-19  6.72957E-03  0.00000E+00  1.8E-06
  2.900E+00  6.40321E-04  1.64078E-19  5.85932E-03  0.00000E+00  1.4E-06
  3.000E+00  6.85233E-04  1.43515E-19  5.12501E-03  0.00000E+00  8.1E-07
  3.100E+00  7.31665E-04  1.26068E-19  4.50196E-03  0.00000E+00  1.0E-07
  3.200E+00  7.79618E-04  1.11188E-19  3.97060E-03  0.00000E+00  6.3E-07
  3.300E+00  8.29092E-04  9.84367E-20  3.51524E-03  0.00000E+00  1.0E-06
  3.400E+00  8.80086E-04  8.74588E-20  3.12321E-03  0.00000E+00  1.1E-06
  3.500E+00  9.32601E-04  7.79671E-20  2.78425E-03  0.00000E+00  8.8E-07
  3.600E+00  9.86636E-04  6.97272E-20  2.49000E-03  0.00000E+00  4.8E-07
  3.700E+00  1.04219E-03  6.25465E-20  2.23358E-03  0.00000E+00  1.0E-07
  3.800E+00  1.09927E-03  5.62660E-20  2.00929E-03  0.00000E+00  4.4E-07
  3.900E+00  1.15786E-03  5.07537E-20  1.81245E-03  0.00000E+00  6.8E-07
  4.000E+00  1.21797E-03  4.58995E-20  1.63910E-03  0.00000E+00  7.2E-07
  4.100E+00  1.27961E-03  4.16116E-20  1.48598E-03  0.00000E+00  5.8E-07
  4.200E+00  1.34276E-03  3.78127E-20  1.35032E-03  0.00000E+00  3.0E-07
  4.300E+00  1.40743E-03  3.44374E-20  1.22978E-03  0.00000E+00  1.0E-07
  4.400E+00  1.47362E-03  3.14304E-20  1.12240E-03  0.00000E+00  3.3E-07
  4.500E+00  1.54133E-03  2.87444E-20  1.02648E-03  0.00000E+00  4.8E-07
  4.600E+00  1.61056E-03  2.63392E-20  9.40590E-04  0.00000E+00  5.0E-07
  4.700E+00  1.68131E-03  2.41804E-20  8.63498E-04  0.00000E+00  4.0E-07
  4.800E+00  1.75357E-03  2.22383E-20  7.94145E-04  0.00000E+00  2.0E-07
  4.900E+00  1.82735E-03  2.04874E-20  7.31618E-04  0.00000E+00  1.0E-07
  5.000E+00  1.90265E-03  1.89055E-20  6.75126E-04  0.00000E+00  2.5E-07
  5.100E+00  1.97947E-03  1.74733E-20  6.23984E-04  0.00000E+00  3.6E-07
  5.200E+00  2.05780E-03  1.61743E-20  5.77596E-04  0.00000E+00  3.7E-07
  5.300E+00  2.13765E-03  1.49939E-20  5.35440E-04  0.00000E+00  2.8E-07
  5.400E+00  2.21902E-03  1.39192E-20  4.97064E-04  0.00000E+00  1.3E-07
  5.500E+00  2.30190E-03  1.29392E-20  4.62066E-04  0.00000E+00  1.0E-07
  5.600E+00  2.38630E-03  1.20439E-20  4.30096E-04  0.00000E+00  2.0E-07
  5.700E+00  2.47222E-03  1.12248E-20  4.00846E-04  0.00000E+00  2.7E-07
  5.800E+00  2.55965E-03  1.04742E-20  3.74042E-04  0.00000E+00  2.8E-07
  5.900E+00  2.64859E-03  9.78540E-21  3.49443E-04  0.00000E+00  2.1E-07
  6.000E+00  2.73905E-03  9.15231E-21  3.26835E-04  0.00000E+00  1.0E-07
  6.100E+00  2.83103E-03  8.56964E-21  3.06027E-04  0.00000E+00  1.0E-07
  6.200E+00  2.92452E-03  8.03264E-21  2.86851E-04  0.00000E+00  1.6E-07
  6.300E+00  3.01952E-03  7.53709E-21  2.69154E-04  0.00000E+00  2.2E-07
  6.400E+00  3.11604E-03  7.07921E-21  2.52803E-04  0.00000E+00  2.1E-07
  6.500E+00  3.21407E-03  6.65560E-21  2.37676E-04  0.00000E+00  1.6E-07
  6.600E+00  3.31362E-03  6.26325E-21  2.23665E-04  0.00000E+00  1.0E-07
  6.700E+00  3.41468E-03  5.89941E-21  2.10672E-04  0.00000E+00  1.0E-07
  6.800E+00  3.51725E-03  5.56164E-21  1.98610E-04  0.00000E+00  1.3E-07
  6.900E+00  3.62133E-03  5.24773E-21  1.87400E-04  0.00000E+00  1.7E-07
  7.000E+00  3.72692E-03  4.95567E-21  1.76970E-04  0.00000E+00  1.7E-07
  7.100E+00  3.83403E-03  4.68368E-21  1.67257E-04  0.00000E+00  1.2E-07
  7.200E+00  3.94265E-03  4.43012E-21  1.58202E-04  0.00000E+00  1.0E-07
  7.300E+00  4.05278E-03  4.19350E-21  1.49753E-04  0.00000E+00  1.0E-07
  7.400E+00  4.16442E-03  3.97250E-21  1.41860E-04  0.00000E+00  1.1E-07
  7.500E+00  4.27757E-03  3.76588E-21  1.34482E-04  0.00000E+00  1.4E-07
  7.600E+00  4.39223E-03  3.57253E-21  1.27578E-04  0.00000E+00  1.3E-07
  7.700E+00  4.50840E-03  3.39146E-21  1.21111E-04  0.00000E+00  1.0E-07
  7.800E+00  4.62608E-03  3.22173E-21  1.15050E-04  0.00000E+00  1.0E-07
  7.900E+00  4.74527E-03  3.06249E-21  1.09364E-04  0.00000E+00  1.0E-07
  8.000E+00  4.86597E-03  2.91299E-21  1.04025E-04  0.00000E+00  1.0E-07
  8.100E+00  4.98817E-03  2.77251E-21  9.90082E-05  0.00000E+00  1.1E-07
  8.200E+00  5.11188E-03  2.64041E-21  9.42908E-05  0.00000E+00  1.1E-07
  8.300E+00  5.23711E-03  2.51610E-21  8.98515E-05  0.00000E+00  1.0E-07
  8.400E+00  5.36383E-03  2.39902E-21  8.56707E-05  0.00000E+00  1.0E-07
  8.500E+00  5.49207E-03  2.28869E-21  8.17307E-05  0.00000E+00  1.0E-07
  8.600E+00  5.62181E-03  2.18464E-21  7.80149E-05  0.00000E+00  1.0E-07
  8.700E+00  5.75306E-03  2.08644E-21  7.45082E-05  0.00000E+00  1.0E-07
  8.800E+00  5.88581E-03  1.99371E-21  7.11967E-05  0.00000E+00  1.0E-07
  8.900E+00  6.02007E-03  1.90608E-21  6.80673E-05  0.00000E+00  1.0E-07
  9.000E+00  6.15583E-03  1.82322E-21  6.51083E-05  0.00000E+00  1.0E-07
  9.100E+00  6.29310E-03  1.74482E-21  6.23086E-05  0.00000E+00  1.0E-07
  9.200E+00  6.43187E-03  1.67059E-21  5.96580E-05  0.00000E+00  1.0E-07
  9.300E+00  6.57214E-03  1.60028E-21  5.71470E-05  0.00000E+00  1.0E-07
  9.400E+00  6.71392E-03  1.53363E-21  5.47670E-05  0.00000E+00  1.0E-07
  9.500E+00  6.85720E-03  1.47042E-21  5.25098E-05  0.00000E+00  1.0E-07
  9.600E+00  7.00198E-03  1.41045E-21  5.03679E-05  0.00000E+00  1.0E-07
  9.700E+00  7.14827E-03  1.35350E-21  4.83343E-05  0.00000E+00  1.0E-07
  9.800E+00  7.29605E-03  1.29940E-21  4.64025E-05  0.00000E+00  1.0E-07
  9.900E+00  7.44534E-03  1.24798E-21  4.45663E-05  0.00000E+00  1.0E-07
  1.000E+01  7.59612E-03  1.19909E-21  4.28203E-05  0.00000E+00  1.0E-07
  1.025E+01  7.97965E-03  1.08694E-21  3.88154E-05  0.00000E+00  1.0E-07
  1.050E+01  8.37255E-03  9.87610E-22  3.52682E-05  0.00000E+00  1.0E-07
  1.075E+01  8.77480E-03  8.99388E-22  3.21177E-05  0.00000E+00  1.0E-07
  1.100E+01  9.18641E-03  8.20816E-22  2.93119E-05  0.00000E+00  1.0E-07
  1.125E+01  9.60736E-03  7.50654E-22  2.68063E-05  0.00000E+00  1.0E-07
  1.150E+01  1.00376E-02  6.87844E-22  2.45633E-05  0.00000E+00  1.0E-07
  1.175E+01  1.04773E-02  6.31478E-22  2.25505E-05  0.00000E+00  1.0E-07
  1.200E+01  1.09262E-02  5.80780E-22  2.07400E-05  0.00000E+00  1.0E-07
  1.225E+01  1.13844E-02  5.35077E-22  1.91079E-05  0.00000E+00  1.0E-07
  1.250E+01  1.18520E-02  4.93790E-22  1.76336E-05  0.00000E+00  1.0E-07
  1.275E+01  1.23288E-02  4.56416E-22  1.62989E-05  0.00000E+00  1.0E-07
  1.300E+01  1.28150E-02  4.22518E-22  1.50884E-05  0.00000E+00  1.0E-07
  1.325E+01  1.33104E-02  3.91715E-22  1.39884E-05  0.00000E+00  1.0E-07
  1.350E+01  1.38150E-02  3.63673E-22  1.29870E-05  0.00000E+00  1.0E-07
  1.375E+01  1.43290E-02  3.38100E-22  1.20738E-05  0.00000E+00  1.0E-07
  1.400E+01  1.48521E-02  3.14740E-22  1.12396E-05  0.00000E+00  1.0E-07
  1.425E+01  1.53845E-02  2.93366E-22  1.04763E-05  0.00000E+00  1.0E-07
  1.450E+01  1.59262E-02  2.73779E-22  9.77684E-06  0.00000E+00  1.0E-07
  1.475E+01  1.64770E-02  2.55803E-22  9.13489E-06  0.00000E+00  1.0E-07
  1.500E+01  1.70371E-02  2.39280E-22  8.54486E-06  0.00000E+00  1.0E-07
  1.525E+01  1.76063E-02  2.24073E-22  8.00178E-06  0.00000E+00  1.0E-07
