 #
 # Subroutine ELSEPA. Elastic scattering of electrons and positrons
 #                    by neutral atoms and positive ions
 #
 # Projectile: electron
 # Kinetic energy = 3.70000E+06 eV = 1.35973E+05 a.u.
 #
 # WARNING: High-energy factorization with free-atom DF screening.
 #          Absorption, polarization and exchange corrections are
 #          switched off.
 #          Phase shifts are calculated for the bare nucleus.
 #          Scattering amplitudes are not evaluated.
 #
 # Element: Pm,  Z =  61,  atomic weight = 1.44913E+02 g/mol
 #
 # Nuclear model: Fermi distribution
 #                Average radius = 5.62021E-13 cm
 #                Skin thickness = 5.46000E-14 cm
 #
 # Number of electrons = 61
 #
 # Total elastic cross section = 7.36319E-18 cm**2 = 2.62944E-01 a0**2
 # 1st transport cross section = 3.34817E-22 cm**2 = 1.19565E-05 a0**2
 # 2nd transport cross section = 9.18058E-22 cm**2 = 3.27844E-05 a0**2
 #
 #
 # Differential cross section:                       MU=(1-COS(THETA))/2
 #
 #  THETA        MU          DCS          DCS        Sherman      error
 #  (deg)                 (cm**2/sr)   (a0**2/sr)    function
 #----------------------------------------------------------------------
  0.000E+00  0.00000E+00  1.72441E-12  6.15797E+04  0.00000E+00  1.0E-05
  1.000E-04  7.61557E-13  1.72439E-12  6.15791E+04  0.00000E+00  1.0E-05
  1.250E-04  1.18994E-12  1.72438E-12  6.15788E+04  0.00000E+00  1.0E-05
  1.500E-04  1.71346E-12  1.72437E-12  6.15784E+04  0.00000E+00  1.0E-05
  1.750E-04  2.33225E-12  1.72436E-12  6.15779E+04  0.00000E+00  1.0E-05
  2.000E-04  3.04617E-12  1.72434E-12  6.15774E+04  0.00000E+00  1.0E-05
  2.250E-04  3.85530E-12  1.72433E-12  6.15768E+04  0.00000E+00  1.0E-05
  2.500E-04  4.75964E-12  1.72431E-12  6.15761E+04  0.00000E+00  1.0E-05
  2.750E-04  5.75917E-12  1.72429E-12  6.15754E+04  0.00000E+00  1.0E-05
  3.000E-04  6.85391E-12  1.72426E-12  6.15746E+04  0.00000E+00  1.0E-05
  3.250E-04  8.04379E-12  1.72424E-12  6.15737E+04  0.00000E+00  1.0E-05
  3.500E-04  9.32893E-12  1.72421E-12  6.15727E+04  0.00000E+00  1.0E-05
  3.750E-04  1.07092E-11  1.72418E-12  6.15717E+04  0.00000E+00  1.0E-05
  4.000E-04  1.21847E-11  1.72415E-12  6.15706E+04  0.00000E+00  1.0E-05
  4.250E-04  1.37554E-11  1.72412E-12  6.15694E+04  0.00000E+00  1.0E-05
  4.500E-04  1.54213E-11  1.72409E-12  6.15682E+04  0.00000E+00  1.0E-05
  4.750E-04  1.71823E-11  1.72405E-12  6.15669E+04  0.00000E+00  1.0E-05
  5.000E-04  1.90386E-11  1.72401E-12  6.15655E+04  0.00000E+00  1.0E-05
  5.250E-04  2.09900E-11  1.72397E-12  6.15641E+04  0.00000E+00  1.0E-05
  5.500E-04  2.30367E-11  1.72393E-12  6.15625E+04  0.00000E+00  1.0E-05
  5.750E-04  2.51785E-11  1.72388E-12  6.15609E+04  0.00000E+00  1.0E-05
  6.000E-04  2.74156E-11  1.72384E-12  6.15593E+04  0.00000E+00  1.0E-05
  6.250E-04  2.97478E-11  1.72379E-12  6.15575E+04  0.00000E+00  1.0E-05
  6.500E-04  3.21752E-11  1.72374E-12  6.15557E+04  0.00000E+00  1.0E-05
  6.750E-04  3.46979E-11  1.72368E-12  6.15539E+04  0.00000E+00  1.0E-05
  7.000E-04  3.73157E-11  1.72363E-12  6.15519E+04  0.00000E+00  1.0E-05
  7.250E-04  4.00286E-11  1.72357E-12  6.15499E+04  0.00000E+00  1.0E-05
  7.500E-04  4.28368E-11  1.72351E-12  6.15478E+04  0.00000E+00  1.0E-05
  7.750E-04  4.57402E-11  1.72345E-12  6.15456E+04  0.00000E+00  1.0E-05
  8.000E-04  4.87388E-11  1.72339E-12  6.15434E+04  0.00000E+00  1.0E-05
  8.250E-04  5.18325E-11  1.72333E-12  6.15411E+04  0.00000E+00  1.0E-05
  8.500E-04  5.50215E-11  1.72326E-12  6.15387E+04  0.00000E+00  1.0E-05
  8.750E-04  5.83057E-11  1.72319E-12  6.15363E+04  0.00000E+00  1.0E-05
  9.000E-04  6.16850E-11  1.72312E-12  6.15338E+04  0.00000E+00  1.0E-05
  9.250E-04  6.51595E-11  1.72305E-12  6.15312E+04  0.00000E+00  1.0E-05
  9.500E-04  6.87293E-11  1.72297E-12  6.15285E+04  0.00000E+00  1.0E-05
  9.750E-04  7.23943E-11  1.72290E-12  6.15258E+04  0.00000E+00  1.0E-05
  1.000E-03  7.61544E-11  1.72282E-12  6.15230E+04  0.00000E+00  1.0E-05
  1.250E-03  1.18991E-10  1.72193E-12  6.14911E+04  0.00000E+00  1.0E-05
  1.500E-03  1.71347E-10  1.72084E-12  6.14522E+04  0.00000E+00  1.0E-05
  1.750E-03  2.33223E-10  1.71955E-12  6.14062E+04  0.00000E+00  1.0E-05
  2.000E-03  3.04617E-10  1.71807E-12  6.13532E+04  0.00000E+00  1.0E-05
  2.250E-03  3.85531E-10  1.71639E-12  6.12933E+04  0.00000E+00  1.0E-05
  2.500E-03  4.75965E-10  1.71451E-12  6.12264E+04  0.00000E+00  1.0E-05
  2.750E-03  5.75917E-10  1.71245E-12  6.11526E+04  0.00000E+00  1.0E-05
  3.000E-03  6.85389E-10  1.71019E-12  6.10720E+04  0.00000E+00  1.0E-05
  3.250E-03  8.04380E-10  1.70774E-12  6.09845E+04  0.00000E+00  1.0E-05
  3.500E-03  9.32891E-10  1.70510E-12  6.08903E+04  0.00000E+00  1.0E-05
  3.750E-03  1.07092E-09  1.70227E-12  6.07893E+04  0.00000E+00  1.0E-05
  4.000E-03  1.21847E-09  1.69926E-12  6.06817E+04  0.00000E+00  1.0E-05
  4.250E-03  1.37554E-09  1.69606E-12  6.05675E+04  0.00000E+00  1.0E-05
  4.500E-03  1.54213E-09  1.69268E-12  6.04467E+04  0.00000E+00  1.0E-05
  4.750E-03  1.71823E-09  1.68912E-12  6.03195E+04  0.00000E+00  1.0E-05
  5.000E-03  1.90386E-09  1.68537E-12  6.01858E+04  0.00000E+00  1.0E-05
  5.250E-03  2.09900E-09  1.68145E-12  6.00458E+04  0.00000E+00  1.0E-05
  5.500E-03  2.30367E-09  1.67736E-12  5.98996E+04  0.00000E+00  1.0E-05
  5.750E-03  2.51785E-09  1.67309E-12  5.97472E+04  0.00000E+00  1.0E-05
  6.000E-03  2.74156E-09  1.66865E-12  5.95887E+04  0.00000E+00  1.0E-05
  6.250E-03  2.97478E-09  1.66405E-12  5.94242E+04  0.00000E+00  1.0E-05
  6.500E-03  3.21752E-09  1.65928E-12  5.92538E+04  0.00000E+00  1.0E-05
  6.750E-03  3.46978E-09  1.65434E-12  5.90776E+04  0.00000E+00  1.0E-05
  7.000E-03  3.73156E-09  1.64924E-12  5.88955E+04  0.00000E+00  1.0E-05
  7.250E-03  4.00286E-09  1.64399E-12  5.87079E+04  0.00000E+00  1.0E-05
  7.500E-03  4.28368E-09  1.63858E-12  5.85147E+04  0.00000E+00  1.0E-05
  7.750E-03  4.57402E-09  1.63302E-12  5.83161E+04  0.00000E+00  1.0E-05
  8.000E-03  4.87388E-09  1.62730E-12  5.81121E+04  0.00000E+00  1.0E-05
  8.250E-03  5.18326E-09  1.62144E-12  5.79028E+04  0.00000E+00  1.0E-05
  8.500E-03  5.50215E-09  1.61544E-12  5.76884E+04  0.00000E+00  1.0E-05
  8.750E-03  5.83057E-09  1.60930E-12  5.74690E+04  0.00000E+00  1.0E-05
  9.000E-03  6.16850E-09  1.60302E-12  5.72447E+04  0.00000E+00  1.0E-05
  9.250E-03  6.51596E-09  1.59660E-12  5.70156E+04  0.00000E+00  1.0E-05
  9.500E-03  6.87293E-09  1.59005E-12  5.67817E+04  0.00000E+00  1.0E-05
  9.750E-03  7.23942E-09  1.58337E-12  5.65433E+04  0.00000E+00  1.0E-05
  1.000E-02  7.61544E-09  1.57657E-12  5.63004E+04  0.00000E+00  1.0E-05
  1.250E-02  1.18991E-08  1.50240E-12  5.36515E+04  0.00000E+00  1.0E-05
  1.500E-02  1.71347E-08  1.41974E-12  5.06998E+04  0.00000E+00  1.0E-05
  1.750E-02  2.33223E-08  1.33126E-12  4.75403E+04  0.00000E+00  1.0E-05
  2.000E-02  3.04617E-08  1.24011E-12  4.42850E+04  0.00000E+00  1.0E-05
  2.250E-02  3.85531E-08  1.14950E-12  4.10495E+04  0.00000E+00  1.0E-05
  2.500E-02  4.75965E-08  1.06147E-12  3.79059E+04  0.00000E+00  1.0E-05
  2.750E-02  5.75917E-08  9.77194E-13  3.48962E+04  0.00000E+00  1.0E-05
  3.000E-02  6.85389E-08  8.97767E-13  3.20598E+04  0.00000E+00  1.0E-05
  3.250E-02  8.04380E-08  8.24261E-13  2.94349E+04  0.00000E+00  1.0E-05
  3.500E-02  9.32891E-08  7.57065E-13  2.70353E+04  0.00000E+00  1.0E-05
  3.750E-02  1.07092E-07  6.95638E-13  2.48417E+04  0.00000E+00  1.0E-05
  4.000E-02  1.21847E-07  6.39839E-13  2.28491E+04  0.00000E+00  1.0E-05
  4.250E-02  1.37554E-07  5.89515E-13  2.10520E+04  0.00000E+00  1.0E-05
  4.500E-02  1.54213E-07  5.44492E-13  1.94442E+04  0.00000E+00  1.0E-05
  4.750E-02  1.71823E-07  5.03878E-13  1.79938E+04  0.00000E+00  1.0E-05
  5.000E-02  1.90386E-07  4.67281E-13  1.66869E+04  0.00000E+00  1.0E-05
  5.250E-02  2.09900E-07  4.34315E-13  1.55097E+04  0.00000E+00  1.0E-05
  5.500E-02  2.30367E-07  4.04751E-13  1.44539E+04  0.00000E+00  1.0E-05
  5.750E-02  2.51785E-07  3.77966E-13  1.34974E+04  0.00000E+00  1.0E-05
  6.000E-02  2.74156E-07  3.53665E-13  1.26296E+04  0.00000E+00  1.0E-05
  6.250E-02  2.97478E-07  3.31576E-13  1.18408E+04  0.00000E+00  1.0E-05
  6.500E-02  3.21752E-07  3.11457E-13  1.11223E+04  0.00000E+00  1.0E-05
  6.750E-02  3.46978E-07  2.93031E-13  1.04643E+04  0.00000E+00  1.0E-05
  7.000E-02  3.73156E-07  2.76115E-13  9.86024E+03  0.00000E+00  1.0E-05
  7.250E-02  4.00286E-07  2.60548E-13  9.30435E+03  0.00000E+00  1.0E-05
  7.500E-02  4.28368E-07  2.46154E-13  8.79033E+03  0.00000E+00  1.0E-05
  7.750E-02  4.57402E-07  2.32803E-13  8.31356E+03  0.00000E+00  1.0E-05
  8.000E-02  4.87388E-07  2.20411E-13  7.87102E+03  0.00000E+00  1.0E-05
  8.250E-02  5.18325E-07  2.08886E-13  7.45945E+03  0.00000E+00  1.0E-05
  8.500E-02  5.50215E-07  1.98116E-13  7.07486E+03  0.00000E+00  1.0E-05
  8.750E-02  5.83057E-07  1.88017E-13  6.71422E+03  0.00000E+00  1.0E-05
  9.000E-02  6.16850E-07  1.78569E-13  6.37680E+03  0.00000E+00  1.0E-05
  9.250E-02  6.51596E-07  1.69716E-13  6.06067E+03  0.00000E+00  1.0E-05
  9.500E-02  6.87293E-07  1.61395E-13  5.76353E+03  0.00000E+00  1.0E-05
  9.750E-02  7.23942E-07  1.53530E-13  5.48266E+03  0.00000E+00  1.0E-05
  1.000E-01  7.61543E-07  1.46134E-13  5.21854E+03  0.00000E+00  1.0E-05
  1.250E-01  1.18991E-06  9.13198E-14  3.26109E+03  0.00000E+00  1.0E-05
  1.500E-01  1.71347E-06  5.86090E-14  2.09296E+03  0.00000E+00  1.0E-05
  1.750E-01  2.33223E-06  3.97380E-14  1.41907E+03  0.00000E+00  1.0E-05
  2.000E-01  3.04617E-06  2.79330E-14  9.97505E+02  0.00000E+00  1.0E-05
  2.250E-01  3.85531E-06  2.01358E-14  7.19061E+02  0.00000E+00  1.0E-05
  2.500E-01  4.75964E-06  1.48678E-14  5.30940E+02  0.00000E+00  1.0E-05
  2.750E-01  5.75916E-06  1.12239E-14  4.00812E+02  0.00000E+00  1.0E-05
  3.000E-01  6.85388E-06  8.62319E-15  3.07940E+02  0.00000E+00  1.0E-05
  3.250E-01  8.04378E-06  6.70669E-15  2.39500E+02  0.00000E+00  1.0E-05
  3.500E-01  9.32888E-06  5.27407E-15  1.88341E+02  0.00000E+00  1.0E-05
  3.750E-01  1.07092E-05  4.20164E-15  1.50043E+02  0.00000E+00  1.0E-05
  4.000E-01  1.21846E-05  3.38644E-15  1.20932E+02  0.00000E+00  1.0E-05
  4.250E-01  1.37553E-05  2.75784E-15  9.84843E+01  0.00000E+00  1.0E-05
  4.500E-01  1.54212E-05  2.26718E-15  8.09625E+01  0.00000E+00  1.0E-05
  4.750E-01  1.71822E-05  1.88311E-15  6.72471E+01  0.00000E+00  1.0E-05
  5.000E-01  1.90385E-05  1.57824E-15  5.63599E+01  0.00000E+00  1.0E-05
  5.250E-01  2.09899E-05  1.33547E-15  4.76904E+01  0.00000E+00  1.0E-05
  5.500E-01  2.30365E-05  1.13826E-15  4.06478E+01  0.00000E+00  1.0E-05
  5.750E-01  2.51783E-05  9.77191E-16  3.48961E+01  0.00000E+00  1.0E-05
  6.000E-01  2.74153E-05  8.44427E-16  3.01550E+01  0.00000E+00  1.0E-05
  6.250E-01  2.97475E-05  7.34123E-16  2.62160E+01  0.00000E+00  1.0E-05
  6.500E-01  3.21749E-05  6.41665E-16  2.29143E+01  0.00000E+00  1.0E-05
  6.750E-01  3.46974E-05  5.63389E-16  2.01190E+01  0.00000E+00  1.0E-05
  7.000E-01  3.73152E-05  4.96935E-16  1.77459E+01  0.00000E+00  1.0E-05
  7.250E-01  4.00281E-05  4.40237E-16  1.57212E+01  0.00000E+00  1.0E-05
  7.500E-01  4.28362E-05  3.91435E-16  1.39784E+01  0.00000E+00  1.0E-05
  7.750E-01  4.57395E-05  3.49233E-16  1.24714E+01  0.00000E+00  1.0E-05
  8.000E-01  4.87380E-05  3.12603E-16  1.11632E+01  0.00000E+00  1.0E-05
  8.250E-01  5.18317E-05  2.80650E-16  1.00222E+01  0.00000E+00  1.0E-05
  8.500E-01  5.50205E-05  2.52602E-16  9.02058E+00  0.00000E+00  1.0E-05
  8.750E-01  5.83045E-05  2.27880E-16  8.13775E+00  0.00000E+00  1.0E-05
  9.000E-01  6.16838E-05  2.06086E-16  7.35945E+00  0.00000E+00  1.0E-05
  9.250E-01  6.51582E-05  1.86812E-16  6.67118E+00  0.00000E+00  1.0E-05
  9.500E-01  6.87277E-05  1.69703E-16  6.06020E+00  0.00000E+00  1.0E-05
  9.750E-01  7.23925E-05  1.54451E-16  5.51555E+00  0.00000E+00  1.0E-05
  1.000E+00  7.61524E-05  1.40866E-16  5.03041E+00  0.00000E+00  5.9E-06
  1.100E+00  9.21439E-05  9.93098E-17  3.54642E+00  0.00000E+00  4.5E-06
  1.200E+00  1.09658E-04  7.19338E-17  2.56880E+00  0.00000E+00  2.5E-06
  1.300E+00  1.28695E-04  5.33444E-17  1.90496E+00  0.00000E+00  5.2E-07
  1.400E+00  1.49255E-04  4.03693E-17  1.44161E+00  0.00000E+00  9.3E-07
  1.500E+00  1.71338E-04  3.11421E-17  1.11210E+00  0.00000E+00  1.7E-06
  1.600E+00  1.94942E-04  2.44204E-17  8.72067E-01  0.00000E+00  1.8E-06
  1.700E+00  2.20070E-04  1.94244E-17  6.93657E-01  0.00000E+00  1.5E-06
  1.800E+00  2.46720E-04  1.56443E-17  5.58667E-01  0.00000E+00  8.5E-07
  1.900E+00  2.74892E-04  1.27457E-17  4.55158E-01  0.00000E+00  1.5E-07
  2.000E+00  3.04586E-04  1.04920E-17  3.74677E-01  0.00000E+00  4.2E-07
  2.100E+00  3.35803E-04  8.71727E-18  3.11299E-01  0.00000E+00  7.6E-07
  2.200E+00  3.68542E-04  7.30083E-18  2.60718E-01  0.00000E+00  8.3E-07
  2.300E+00  4.02802E-04  6.16185E-18  2.20044E-01  0.00000E+00  6.8E-07
  2.400E+00  4.38585E-04  5.23723E-18  1.87025E-01  0.00000E+00  3.9E-07
  2.500E+00  4.75889E-04  4.48015E-18  1.59989E-01  0.00000E+00  1.0E-07
  2.600E+00  5.14715E-04  3.85436E-18  1.37642E-01  0.00000E+00  2.4E-07
  2.700E+00  5.55063E-04  3.33424E-18  1.19068E-01  0.00000E+00  4.2E-07
  2.800E+00  5.96931E-04  2.89911E-18  1.03529E-01  0.00000E+00  4.6E-07
  2.900E+00  6.40321E-04  2.53278E-18  9.04474E-02  0.00000E+00  3.7E-07
  3.000E+00  6.85233E-04  2.22233E-18  7.93609E-02  0.00000E+00  2.1E-07
  3.100E+00  7.31665E-04  1.95797E-18  6.99205E-02  0.00000E+00  1.0E-07
  3.200E+00  7.79618E-04  1.73184E-18  6.18450E-02  0.00000E+00  1.5E-07
  3.300E+00  8.29092E-04  1.53746E-18  5.49037E-02  0.00000E+00  2.6E-07
  3.400E+00  8.80086E-04  1.36957E-18  4.89082E-02  0.00000E+00  2.8E-07
  3.500E+00  9.32601E-04  1.22394E-18  4.37076E-02  0.00000E+00  2.3E-07
  3.600E+00  9.86636E-04  1.09720E-18  3.91817E-02  0.00000E+00  1.2E-07
  3.700E+00  1.04219E-03  9.86480E-19  3.52278E-02  0.00000E+00  1.0E-07
  3.800E+00  1.09927E-03  8.89389E-19  3.17607E-02  0.00000E+00  1.1E-07
  3.900E+00  1.15786E-03  8.03937E-19  2.87091E-02  0.00000E+00  1.7E-07
  4.000E+00  1.21797E-03  7.28534E-19  2.60164E-02  0.00000E+00  1.9E-07
  4.100E+00  1.27961E-03  6.61793E-19  2.36331E-02  0.00000E+00  1.5E-07
  4.200E+00  1.34276E-03  6.02543E-19  2.15172E-02  0.00000E+00  1.0E-07
  4.300E+00  1.40743E-03  5.49772E-19  1.96327E-02  0.00000E+00  1.0E-07
  4.400E+00  1.47362E-03  5.02676E-19  1.79509E-02  0.00000E+00  1.0E-07
  4.500E+00  1.54133E-03  4.60536E-19  1.64460E-02  0.00000E+00  1.2E-07
  4.600E+00  1.61056E-03  4.22737E-19  1.50962E-02  0.00000E+00  1.3E-07
  4.700E+00  1.68131E-03  3.88742E-19  1.38822E-02  0.00000E+00  1.0E-07
  4.800E+00  1.75357E-03  3.58111E-19  1.27884E-02  0.00000E+00  1.0E-07
  4.900E+00  1.82735E-03  3.30452E-19  1.18007E-02  0.00000E+00  1.0E-07
  5.000E+00  1.90265E-03  3.05426E-19  1.09070E-02  0.00000E+00  1.0E-07
  5.100E+00  1.97947E-03  2.82731E-19  1.00965E-02  0.00000E+00  1.0E-07
  5.200E+00  2.05780E-03  2.62115E-19  9.36030E-03  0.00000E+00  1.0E-07
  5.300E+00  2.13765E-03  2.43355E-19  8.69035E-03  0.00000E+00  1.0E-07
  5.400E+00  2.21902E-03  2.26252E-19  8.07962E-03  0.00000E+00  1.0E-07
  5.500E+00  2.30190E-03  2.10633E-19  7.52184E-03  0.00000E+00  1.0E-07
  5.600E+00  2.38630E-03  1.96345E-19  7.01159E-03  0.00000E+00  1.0E-07
  5.700E+00  2.47222E-03  1.83255E-19  6.54416E-03  0.00000E+00  1.0E-07
  5.800E+00  2.55965E-03  1.71245E-19  6.11529E-03  0.00000E+00  1.0E-07
  5.900E+00  2.64859E-03  1.60209E-19  5.72117E-03  0.00000E+00  1.0E-07
  6.000E+00  2.73905E-03  1.50052E-19  5.35845E-03  0.00000E+00  1.0E-07
  6.100E+00  2.83103E-03  1.40693E-19  5.02423E-03  0.00000E+00  1.0E-07
  6.200E+00  2.92452E-03  1.32057E-19  4.71584E-03  0.00000E+00  1.0E-07
  6.300E+00  3.01952E-03  1.24078E-19  4.43091E-03  0.00000E+00  1.0E-07
  6.400E+00  3.11604E-03  1.16696E-19  4.16729E-03  0.00000E+00  1.0E-07
  6.500E+00  3.21407E-03  1.09859E-19  3.92313E-03  0.00000E+00  1.0E-07
  6.600E+00  3.31362E-03  1.03519E-19  3.69672E-03  0.00000E+00  1.0E-07
  6.700E+00  3.41468E-03  9.76330E-20  3.48654E-03  0.00000E+00  1.0E-07
  6.800E+00  3.51725E-03  9.21620E-20  3.29116E-03  0.00000E+00  1.0E-07
  6.900E+00  3.62133E-03  8.70718E-20  3.10939E-03  0.00000E+00  1.0E-07
  7.000E+00  3.72692E-03  8.23311E-20  2.94010E-03  0.00000E+00  1.0E-07
  7.100E+00  3.83403E-03  7.79112E-20  2.78226E-03  0.00000E+00  1.0E-07
  7.200E+00  3.94265E-03  7.37859E-20  2.63494E-03  0.00000E+00  1.0E-07
  7.300E+00  4.05278E-03  6.99321E-20  2.49732E-03  0.00000E+00  1.0E-07
  7.400E+00  4.16442E-03  6.63289E-20  2.36865E-03  0.00000E+00  1.0E-07
  7.500E+00  4.27757E-03  6.29566E-20  2.24822E-03  0.00000E+00  1.0E-07
  7.600E+00  4.39223E-03  5.97976E-20  2.13541E-03  0.00000E+00  1.0E-07
  7.700E+00  4.50840E-03  5.68358E-20  2.02964E-03  0.00000E+00  1.0E-07
  7.800E+00  4.62608E-03  5.40568E-20  1.93040E-03  0.00000E+00  1.0E-07
  7.900E+00  4.74527E-03  5.14470E-20  1.83721E-03  0.00000E+00  1.0E-07
  8.000E+00  4.86597E-03  4.89942E-20  1.74961E-03  0.00000E+00  1.0E-07
  8.100E+00  4.98817E-03  4.66869E-20  1.66722E-03  0.00000E+00  1.0E-07
  8.200E+00  5.11188E-03  4.45152E-20  1.58967E-03  0.00000E+00  1.0E-07
  8.300E+00  5.23711E-03  4.24694E-20  1.51661E-03  0.00000E+00  1.0E-07
  8.400E+00  5.36383E-03  4.05409E-20  1.44774E-03  0.00000E+00  1.0E-07
  8.500E+00  5.49207E-03  3.87215E-20  1.38277E-03  0.00000E+00  1.0E-07
  8.600E+00  5.62181E-03  3.70040E-20  1.32144E-03  0.00000E+00  1.0E-07
  8.700E+00  5.75306E-03  3.53817E-20  1.26350E-03  0.00000E+00  1.0E-07
  8.800E+00  5.88581E-03  3.38481E-20  1.20874E-03  0.00000E+00  1.0E-07
  8.900E+00  6.02007E-03  3.23974E-20  1.15693E-03  0.00000E+00  1.0E-07
  9.000E+00  6.15583E-03  3.10244E-20  1.10790E-03  0.00000E+00  1.0E-07
  9.100E+00  6.29310E-03  2.97241E-20  1.06147E-03  0.00000E+00  1.0E-07
  9.200E+00  6.43187E-03  2.84920E-20  1.01747E-03  0.00000E+00  1.0E-07
  9.300E+00  6.57214E-03  2.73236E-20  9.75744E-04  0.00000E+00  1.0E-07
  9.400E+00  6.71392E-03  2.62151E-20  9.36157E-04  0.00000E+00  1.0E-07
  9.500E+00  6.85720E-03  2.51628E-20  8.98580E-04  0.00000E+00  1.0E-07
  9.600E+00  7.00198E-03  2.41634E-20  8.62891E-04  0.00000E+00  1.0E-07
  9.700E+00  7.14827E-03  2.32136E-20  8.28974E-04  0.00000E+00  1.0E-07
  9.800E+00  7.29605E-03  2.23105E-20  7.96723E-04  0.00000E+00  1.0E-07
  9.900E+00  7.44534E-03  2.14514E-20  7.66043E-04  0.00000E+00  1.0E-07
  1.000E+01  7.59612E-03  2.06337E-20  7.36844E-04  0.00000E+00  1.0E-07
  1.025E+01  7.97965E-03  1.87554E-20  6.69766E-04  0.00000E+00  1.0E-07
  1.050E+01  8.37255E-03  1.70882E-20  6.10230E-04  0.00000E+00  1.0E-07
  1.075E+01  8.77480E-03  1.56042E-20  5.57235E-04  0.00000E+00  1.0E-07
  1.100E+01  9.18641E-03  1.42796E-20  5.09934E-04  0.00000E+00  1.0E-07
  1.125E+01  9.60736E-03  1.30943E-20  4.67604E-04  0.00000E+00  1.0E-07
  1.150E+01  1.00376E-02  1.20308E-20  4.29628E-04  0.00000E+00  1.0E-07
  1.175E+01  1.04773E-02  1.10745E-20  3.95477E-04  0.00000E+00  1.0E-07
  1.200E+01  1.09262E-02  1.02125E-20  3.64695E-04  0.00000E+00  1.0E-07
  1.225E+01  1.13844E-02  9.43382E-21  3.36888E-04  0.00000E+00  1.0E-07
  1.250E+01  1.18520E-02  8.72894E-21  3.11716E-04  0.00000E+00  1.0E-07
  1.275E+01  1.23288E-02  8.08955E-21  2.88883E-04  0.00000E+00  1.0E-07
  1.300E+01  1.28150E-02  7.50846E-21  2.68132E-04  0.00000E+00  1.0E-07
  1.325E+01  1.33104E-02  6.97931E-21  2.49236E-04  0.00000E+00  1.0E-07
  1.350E+01  1.38150E-02  6.49669E-21  2.32001E-04  0.00000E+00  1.0E-07
  1.375E+01  1.43290E-02  6.05566E-21  2.16252E-04  0.00000E+00  1.0E-07
  1.400E+01  1.48521E-02  5.65199E-21  2.01836E-04  0.00000E+00  1.0E-07
  1.425E+01  1.53845E-02  5.28193E-21  1.88621E-04  0.00000E+00  1.0E-07
  1.450E+01  1.59262E-02  4.94215E-21  1.76487E-04  0.00000E+00  1.0E-07
  1.475E+01  1.64770E-02  4.62969E-21  1.65329E-04  0.00000E+00  1.0E-07
  1.500E+01  1.70371E-02  4.34193E-21  1.55053E-04  0.00000E+00  1.0E-07
  1.525E+01  1.76063E-02  4.07656E-21  1.45577E-04  0.00000E+00  1.0E-07
