 #
 # Subroutine ELSEPA. Elastic scattering of electrons and positrons
 #                    by neutral atoms and positive ions
 #
 # Projectile: electron
 # Kinetic energy = 3.70000E+06 eV = 1.35973E+05 a.u.
 #
 # WARNING: High-energy factorization with free-atom DF screening.
 #          Absorption, polarization and exchange corrections are
 #          switched off.
 #          Phase shifts are calculated for the bare nucleus.
 #          Scattering amplitudes are not evaluated.
 #
 # Element: Rn,  Z =  86,  atomic weight = 2.22018E+02 g/mol
 #
 # Nuclear model: Fermi distribution
 #                Average radius = 6.47907E-13 cm
 #                Skin thickness = 5.46000E-14 cm
 #
 # Number of electrons = 86
 #
 # Total elastic cross section = 9.74713E-18 cm**2 = 3.48076E-01 a0**2
 # 1st transport cross section = 6.94478E-22 cm**2 = 2.48003E-05 a0**2
 # 2nd transport cross section = 1.82842E-21 cm**2 = 6.52941E-05 a0**2
 #
 #
 # Differential cross section:                       MU=(1-COS(THETA))/2
 #
 #  THETA        MU          DCS          DCS        Sherman      error
 #  (deg)                 (cm**2/sr)   (a0**2/sr)    function
 #----------------------------------------------------------------------
  0.000E+00  0.00000E+00  1.13973E-12  4.07007E+04  0.00000E+00  1.0E-05
  1.000E-04  7.61557E-13  1.13973E-12  4.07006E+04  0.00000E+00  1.0E-05
  1.250E-04  1.18994E-12  1.13973E-12  4.07005E+04  0.00000E+00  1.0E-05
  1.500E-04  1.71346E-12  1.13973E-12  4.07004E+04  0.00000E+00  1.0E-05
  1.750E-04  2.33225E-12  1.13972E-12  4.07003E+04  0.00000E+00  1.0E-05
  2.000E-04  3.04617E-12  1.13972E-12  4.07002E+04  0.00000E+00  1.0E-05
  2.250E-04  3.85530E-12  1.13972E-12  4.07001E+04  0.00000E+00  1.0E-05
  2.500E-04  4.75964E-12  1.13971E-12  4.06999E+04  0.00000E+00  1.0E-05
  2.750E-04  5.75917E-12  1.13971E-12  4.06998E+04  0.00000E+00  1.0E-05
  3.000E-04  6.85391E-12  1.13970E-12  4.06996E+04  0.00000E+00  1.0E-05
  3.250E-04  8.04379E-12  1.13970E-12  4.06994E+04  0.00000E+00  1.0E-05
  3.500E-04  9.32893E-12  1.13969E-12  4.06992E+04  0.00000E+00  1.0E-05
  3.750E-04  1.07092E-11  1.13969E-12  4.06990E+04  0.00000E+00  1.0E-05
  4.000E-04  1.21847E-11  1.13968E-12  4.06987E+04  0.00000E+00  1.0E-05
  4.250E-04  1.37554E-11  1.13967E-12  4.06985E+04  0.00000E+00  1.0E-05
  4.500E-04  1.54213E-11  1.13967E-12  4.06982E+04  0.00000E+00  1.0E-05
  4.750E-04  1.71823E-11  1.13966E-12  4.06979E+04  0.00000E+00  1.0E-05
  5.000E-04  1.90386E-11  1.13965E-12  4.06976E+04  0.00000E+00  1.0E-05
  5.250E-04  2.09900E-11  1.13964E-12  4.06973E+04  0.00000E+00  1.0E-05
  5.500E-04  2.30367E-11  1.13963E-12  4.06970E+04  0.00000E+00  1.0E-05
  5.750E-04  2.51785E-11  1.13962E-12  4.06967E+04  0.00000E+00  1.0E-05
  6.000E-04  2.74156E-11  1.13961E-12  4.06963E+04  0.00000E+00  1.0E-05
  6.250E-04  2.97478E-11  1.13960E-12  4.06959E+04  0.00000E+00  1.0E-05
  6.500E-04  3.21752E-11  1.13959E-12  4.06955E+04  0.00000E+00  1.0E-05
  6.750E-04  3.46979E-11  1.13958E-12  4.06951E+04  0.00000E+00  1.0E-05
  7.000E-04  3.73157E-11  1.13957E-12  4.06947E+04  0.00000E+00  1.0E-05
  7.250E-04  4.00286E-11  1.13956E-12  4.06943E+04  0.00000E+00  1.0E-05
  7.500E-04  4.28368E-11  1.13954E-12  4.06938E+04  0.00000E+00  1.0E-05
  7.750E-04  4.57402E-11  1.13953E-12  4.06934E+04  0.00000E+00  1.0E-05
  8.000E-04  4.87388E-11  1.13952E-12  4.06929E+04  0.00000E+00  1.0E-05
  8.250E-04  5.18325E-11  1.13950E-12  4.06924E+04  0.00000E+00  1.0E-05
  8.500E-04  5.50215E-11  1.13949E-12  4.06919E+04  0.00000E+00  1.0E-05
  8.750E-04  5.83057E-11  1.13947E-12  4.06914E+04  0.00000E+00  1.0E-05
  9.000E-04  6.16850E-11  1.13946E-12  4.06908E+04  0.00000E+00  1.0E-05
  9.250E-04  6.51595E-11  1.13944E-12  4.06903E+04  0.00000E+00  1.0E-05
  9.500E-04  6.87293E-11  1.13943E-12  4.06897E+04  0.00000E+00  1.0E-05
  9.750E-04  7.23943E-11  1.13941E-12  4.06891E+04  0.00000E+00  1.0E-05
  1.000E-03  7.61544E-11  1.13939E-12  4.06885E+04  0.00000E+00  1.0E-05
  1.250E-03  1.18991E-10  1.13920E-12  4.06816E+04  0.00000E+00  1.0E-05
  1.500E-03  1.71347E-10  1.13897E-12  4.06733E+04  0.00000E+00  1.0E-05
  1.750E-03  2.33223E-10  1.13869E-12  4.06633E+04  0.00000E+00  1.0E-05
  2.000E-03  3.04617E-10  1.13837E-12  4.06519E+04  0.00000E+00  1.0E-05
  2.250E-03  3.85531E-10  1.13801E-12  4.06389E+04  0.00000E+00  1.0E-05
  2.500E-03  4.75965E-10  1.13760E-12  4.06245E+04  0.00000E+00  1.0E-05
  2.750E-03  5.75917E-10  1.13715E-12  4.06085E+04  0.00000E+00  1.0E-05
  3.000E-03  6.85389E-10  1.13666E-12  4.05910E+04  0.00000E+00  1.0E-05
  3.250E-03  8.04380E-10  1.13613E-12  4.05720E+04  0.00000E+00  1.0E-05
  3.500E-03  9.32891E-10  1.13556E-12  4.05514E+04  0.00000E+00  1.0E-05
  3.750E-03  1.07092E-09  1.13494E-12  4.05294E+04  0.00000E+00  1.0E-05
  4.000E-03  1.21847E-09  1.13428E-12  4.05059E+04  0.00000E+00  1.0E-05
  4.250E-03  1.37554E-09  1.13358E-12  4.04809E+04  0.00000E+00  1.0E-05
  4.500E-03  1.54213E-09  1.13284E-12  4.04543E+04  0.00000E+00  1.0E-05
  4.750E-03  1.71823E-09  1.13205E-12  4.04263E+04  0.00000E+00  1.0E-05
  5.000E-03  1.90386E-09  1.13123E-12  4.03969E+04  0.00000E+00  1.0E-05
  5.250E-03  2.09900E-09  1.13036E-12  4.03659E+04  0.00000E+00  1.0E-05
  5.500E-03  2.30367E-09  1.12945E-12  4.03335E+04  0.00000E+00  1.0E-05
  5.750E-03  2.51785E-09  1.12850E-12  4.02996E+04  0.00000E+00  1.0E-05
  6.000E-03  2.74156E-09  1.12751E-12  4.02642E+04  0.00000E+00  1.0E-05
  6.250E-03  2.97478E-09  1.12648E-12  4.02274E+04  0.00000E+00  1.0E-05
  6.500E-03  3.21752E-09  1.12541E-12  4.01891E+04  0.00000E+00  1.0E-05
  6.750E-03  3.46978E-09  1.12430E-12  4.01494E+04  0.00000E+00  1.0E-05
  7.000E-03  3.73156E-09  1.12315E-12  4.01083E+04  0.00000E+00  1.0E-05
  7.250E-03  4.00286E-09  1.12195E-12  4.00657E+04  0.00000E+00  1.0E-05
  7.500E-03  4.28368E-09  1.12072E-12  4.00217E+04  0.00000E+00  1.0E-05
  7.750E-03  4.57402E-09  1.11945E-12  3.99763E+04  0.00000E+00  1.0E-05
  8.000E-03  4.87388E-09  1.11814E-12  3.99295E+04  0.00000E+00  1.0E-05
  8.250E-03  5.18326E-09  1.11679E-12  3.98813E+04  0.00000E+00  1.0E-05
  8.500E-03  5.50215E-09  1.11540E-12  3.98317E+04  0.00000E+00  1.0E-05
  8.750E-03  5.83057E-09  1.11397E-12  3.97807E+04  0.00000E+00  1.0E-05
  9.000E-03  6.16850E-09  1.11251E-12  3.97283E+04  0.00000E+00  1.0E-05
  9.250E-03  6.51596E-09  1.11100E-12  3.96746E+04  0.00000E+00  1.0E-05
  9.500E-03  6.87293E-09  1.10946E-12  3.96195E+04  0.00000E+00  1.0E-05
  9.750E-03  7.23942E-09  1.10788E-12  3.95631E+04  0.00000E+00  1.0E-05
  1.000E-02  7.61544E-09  1.10626E-12  3.95053E+04  0.00000E+00  1.0E-05
  1.250E-02  1.18991E-08  1.08809E-12  3.88563E+04  0.00000E+00  1.0E-05
  1.500E-02  1.71347E-08  1.06635E-12  3.80799E+04  0.00000E+00  1.0E-05
  1.750E-02  2.33223E-08  1.04163E-12  3.71974E+04  0.00000E+00  1.0E-05
  2.000E-02  3.04617E-08  1.01432E-12  3.62221E+04  0.00000E+00  1.0E-05
  2.250E-02  3.85531E-08  9.84544E-13  3.51587E+04  0.00000E+00  1.0E-05
  2.500E-02  4.75965E-08  9.52731E-13  3.40226E+04  0.00000E+00  1.0E-05
  2.750E-02  5.75917E-08  9.19506E-13  3.28362E+04  0.00000E+00  1.0E-05
  3.000E-02  6.85389E-08  8.85297E-13  3.16145E+04  0.00000E+00  1.0E-05
  3.250E-02  8.04380E-08  8.50227E-13  3.03621E+04  0.00000E+00  1.0E-05
  3.500E-02  9.32891E-08  8.14498E-13  2.90863E+04  0.00000E+00  1.0E-05
  3.750E-02  1.07092E-07  7.78819E-13  2.78121E+04  0.00000E+00  1.0E-05
  4.000E-02  1.21847E-07  7.43475E-13  2.65500E+04  0.00000E+00  1.0E-05
  4.250E-02  1.37554E-07  7.08575E-13  2.53037E+04  0.00000E+00  1.0E-05
  4.500E-02  1.54213E-07  6.73983E-13  2.40684E+04  0.00000E+00  1.0E-05
  4.750E-02  1.71823E-07  6.40373E-13  2.28681E+04  0.00000E+00  1.0E-05
  5.000E-02  1.90386E-07  6.07872E-13  2.17075E+04  0.00000E+00  1.0E-05
  5.250E-02  2.09900E-07  5.76563E-13  2.05894E+04  0.00000E+00  1.0E-05
  5.500E-02  2.30367E-07  5.46070E-13  1.95005E+04  0.00000E+00  1.0E-05
  5.750E-02  2.51785E-07  5.16952E-13  1.84607E+04  0.00000E+00  1.0E-05
  6.000E-02  2.74156E-07  4.89221E-13  1.74704E+04  0.00000E+00  1.0E-05
  6.250E-02  2.97478E-07  4.62871E-13  1.65294E+04  0.00000E+00  1.0E-05
  6.500E-02  3.21752E-07  4.37625E-13  1.56279E+04  0.00000E+00  1.0E-05
  6.750E-02  3.46978E-07  4.13712E-13  1.47739E+04  0.00000E+00  1.0E-05
  7.000E-02  3.73156E-07  3.91148E-13  1.39682E+04  0.00000E+00  1.0E-05
  7.250E-02  4.00286E-07  3.69882E-13  1.32087E+04  0.00000E+00  1.0E-05
  7.500E-02  4.28368E-07  3.49726E-13  1.24889E+04  0.00000E+00  1.0E-05
  7.750E-02  4.57402E-07  3.30712E-13  1.18100E+04  0.00000E+00  1.0E-05
  8.000E-02  4.87388E-07  3.12862E-13  1.11725E+04  0.00000E+00  1.0E-05
  8.250E-02  5.18325E-07  2.96111E-13  1.05743E+04  0.00000E+00  1.0E-05
  8.500E-02  5.50215E-07  2.80335E-13  1.00109E+04  0.00000E+00  1.0E-05
  8.750E-02  5.83057E-07  2.65475E-13  9.48030E+03  0.00000E+00  1.0E-05
  9.000E-02  6.16850E-07  2.51555E-13  8.98318E+03  0.00000E+00  1.0E-05
  9.250E-02  6.51596E-07  2.38511E-13  8.51737E+03  0.00000E+00  1.0E-05
  9.500E-02  6.87293E-07  2.26265E-13  8.08008E+03  0.00000E+00  1.0E-05
  9.750E-02  7.23942E-07  2.14727E-13  7.66805E+03  0.00000E+00  1.0E-05
  1.000E-01  7.61543E-07  2.03919E-13  7.28207E+03  0.00000E+00  1.0E-05
  1.250E-01  1.18991E-06  1.25955E-13  4.49793E+03  0.00000E+00  1.0E-05
  1.500E-01  1.71347E-06  8.17029E-14  2.91766E+03  0.00000E+00  1.0E-05
  1.750E-01  2.33223E-06  5.62147E-14  2.00746E+03  0.00000E+00  1.0E-05
  2.000E-01  3.04617E-06  4.01512E-14  1.43383E+03  0.00000E+00  1.0E-05
  2.250E-01  3.85531E-06  2.92936E-14  1.04609E+03  0.00000E+00  1.0E-05
  2.500E-01  4.75964E-06  2.18455E-14  7.80118E+02  0.00000E+00  1.0E-05
  2.750E-01  5.75916E-06  1.66579E-14  5.94865E+02  0.00000E+00  1.0E-05
  3.000E-01  6.85388E-06  1.29429E-14  4.62201E+02  0.00000E+00  1.0E-05
  3.250E-01  8.04378E-06  1.02064E-14  3.64477E+02  0.00000E+00  1.0E-05
  3.500E-01  9.32888E-06  8.15748E-15  2.91309E+02  0.00000E+00  1.0E-05
  3.750E-01  1.07092E-05  6.61210E-15  2.36123E+02  0.00000E+00  1.0E-05
  4.000E-01  1.21846E-05  5.42454E-15  1.93714E+02  0.00000E+00  1.0E-05
  4.250E-01  1.37553E-05  4.49457E-15  1.60504E+02  0.00000E+00  1.0E-05
  4.500E-01  1.54212E-05  3.75154E-15  1.33970E+02  0.00000E+00  1.0E-05
  4.750E-01  1.71822E-05  3.15751E-15  1.12757E+02  0.00000E+00  1.0E-05
  5.000E-01  1.90385E-05  2.67520E-15  9.55333E+01  0.00000E+00  1.0E-05
  5.250E-01  2.09899E-05  2.28443E-15  8.15784E+01  0.00000E+00  1.0E-05
  5.500E-01  2.30365E-05  1.95850E-15  6.99394E+01  0.00000E+00  1.0E-05
  5.750E-01  2.51783E-05  1.68795E-15  6.02779E+01  0.00000E+00  1.0E-05
  6.000E-01  2.74153E-05  1.46186E-15  5.22041E+01  0.00000E+00  1.0E-05
  6.250E-01  2.97475E-05  1.27196E-15  4.54224E+01  0.00000E+00  1.0E-05
  6.500E-01  3.21749E-05  1.11142E-15  3.96897E+01  0.00000E+00  1.0E-05
  6.750E-01  3.46974E-05  9.74705E-16  3.48073E+01  0.00000E+00  1.0E-05
  7.000E-01  3.73152E-05  8.58406E-16  3.06542E+01  0.00000E+00  1.0E-05
  7.250E-01  4.00281E-05  7.59218E-16  2.71122E+01  0.00000E+00  1.0E-05
  7.500E-01  4.28362E-05  6.74037E-16  2.40703E+01  0.00000E+00  1.0E-05
  7.750E-01  4.57395E-05  6.00626E-16  2.14487E+01  0.00000E+00  1.0E-05
  8.000E-01  4.87380E-05  5.37114E-16  1.91807E+01  0.00000E+00  1.0E-05
  8.250E-01  5.18317E-05  4.81901E-16  1.72090E+01  0.00000E+00  1.0E-05
  8.500E-01  5.50205E-05  4.33630E-16  1.54852E+01  0.00000E+00  1.0E-05
  8.750E-01  5.83045E-05  3.91253E-16  1.39719E+01  0.00000E+00  1.0E-05
  9.000E-01  6.16838E-05  3.53997E-16  1.26415E+01  0.00000E+00  1.0E-05
  9.250E-01  6.51582E-05  3.21134E-16  1.14679E+01  0.00000E+00  1.0E-05
  9.500E-01  6.87277E-05  2.92031E-16  1.04286E+01  0.00000E+00  1.0E-05
  9.750E-01  7.23925E-05  2.66149E-16  9.50435E+00  0.00000E+00  1.0E-05
  1.000E+00  7.61524E-05  2.43113E-16  8.68171E+00  0.00000E+00  1.1E-05
  1.100E+00  9.21439E-05  1.72742E-16  6.16873E+00  0.00000E+00  8.0E-06
  1.200E+00  1.09658E-04  1.26227E-16  4.50763E+00  0.00000E+00  4.4E-06
  1.300E+00  1.28695E-04  9.43943E-17  3.37088E+00  0.00000E+00  9.0E-07
  1.400E+00  1.49255E-04  7.19608E-17  2.56977E+00  0.00000E+00  1.7E-06
  1.500E+00  1.71338E-04  5.58788E-17  1.99547E+00  0.00000E+00  3.1E-06
  1.600E+00  1.94942E-04  4.40758E-17  1.57398E+00  0.00000E+00  3.3E-06
  1.700E+00  2.20070E-04  3.52391E-17  1.25841E+00  0.00000E+00  2.7E-06
  1.800E+00  2.46720E-04  2.85033E-17  1.01787E+00  0.00000E+00  1.5E-06
  1.900E+00  2.74892E-04  2.33131E-17  8.32527E-01  0.00000E+00  2.5E-07
  2.000E+00  3.04586E-04  1.92576E-17  6.87702E-01  0.00000E+00  7.7E-07
  2.100E+00  3.35803E-04  1.60497E-17  5.73146E-01  0.00000E+00  1.4E-06
  2.200E+00  3.68542E-04  1.34766E-17  4.81257E-01  0.00000E+00  1.5E-06
  2.300E+00  4.02802E-04  1.14006E-17  4.07123E-01  0.00000E+00  1.2E-06
  2.400E+00  4.38585E-04  9.71014E-18  3.46756E-01  0.00000E+00  6.9E-07
  2.500E+00  4.75889E-04  8.32184E-18  2.97178E-01  0.00000E+00  1.0E-07
  2.600E+00  5.14715E-04  7.17123E-18  2.56089E-01  0.00000E+00  4.4E-07
  2.700E+00  5.55063E-04  6.21275E-18  2.21861E-01  0.00000E+00  7.5E-07
  2.800E+00  5.96931E-04  5.40955E-18  1.93179E-01  0.00000E+00  8.2E-07
  2.900E+00  6.40321E-04  4.73231E-18  1.68994E-01  0.00000E+00  6.7E-07
  3.000E+00  6.85233E-04  4.15747E-18  1.48466E-01  0.00000E+00  3.7E-07
  3.100E+00  7.31665E-04  3.66738E-18  1.30965E-01  0.00000E+00  1.0E-07
  3.200E+00  7.79618E-04  3.24771E-18  1.15978E-01  0.00000E+00  2.8E-07
  3.300E+00  8.29092E-04  2.88665E-18  1.03084E-01  0.00000E+00  4.7E-07
  3.400E+00  8.80086E-04  2.57443E-18  9.19344E-02  0.00000E+00  5.0E-07
  3.500E+00  9.32601E-04  2.30336E-18  8.22546E-02  0.00000E+00  4.1E-07
  3.600E+00  9.86636E-04  2.06725E-18  7.38228E-02  0.00000E+00  2.1E-07
  3.700E+00  1.04219E-03  1.86078E-18  6.64496E-02  0.00000E+00  1.0E-07
  3.800E+00  1.09927E-03  1.67956E-18  5.99781E-02  0.00000E+00  2.0E-07
  3.900E+00  1.15786E-03  1.51988E-18  5.42760E-02  0.00000E+00  3.2E-07
  4.000E+00  1.21797E-03  1.37885E-18  4.92395E-02  0.00000E+00  3.3E-07
  4.100E+00  1.27961E-03  1.25389E-18  4.47770E-02  0.00000E+00  2.6E-07
  4.200E+00  1.34276E-03  1.14284E-18  4.08115E-02  0.00000E+00  1.3E-07
  4.300E+00  1.40743E-03  1.04380E-18  3.72750E-02  0.00000E+00  1.0E-07
  4.400E+00  1.47362E-03  9.55326E-19  3.41153E-02  0.00000E+00  1.5E-07
  4.500E+00  1.54133E-03  8.76077E-19  3.12853E-02  0.00000E+00  2.2E-07
  4.600E+00  1.61056E-03  8.04915E-19  2.87440E-02  0.00000E+00  2.3E-07
  4.700E+00  1.68131E-03  7.40828E-19  2.64555E-02  0.00000E+00  1.8E-07
  4.800E+00  1.75357E-03  6.83020E-19  2.43911E-02  0.00000E+00  1.0E-07
  4.900E+00  1.82735E-03  6.30767E-19  2.25251E-02  0.00000E+00  1.0E-07
  5.000E+00  1.90265E-03  5.83437E-19  2.08349E-02  0.00000E+00  1.1E-07
  5.100E+00  1.97947E-03  5.40465E-19  1.93003E-02  0.00000E+00  1.7E-07
  5.200E+00  2.05780E-03  5.01385E-19  1.79048E-02  0.00000E+00  1.7E-07
  5.300E+00  2.13765E-03  4.65789E-19  1.66336E-02  0.00000E+00  1.3E-07
  5.400E+00  2.21902E-03  4.33308E-19  1.54737E-02  0.00000E+00  1.0E-07
  5.500E+00  2.30190E-03  4.03614E-19  1.44133E-02  0.00000E+00  1.0E-07
  5.600E+00  2.38630E-03  3.76421E-19  1.34422E-02  0.00000E+00  1.0E-07
  5.700E+00  2.47222E-03  3.51490E-19  1.25519E-02  0.00000E+00  1.3E-07
  5.800E+00  2.55965E-03  3.28597E-19  1.17344E-02  0.00000E+00  1.3E-07
  5.900E+00  2.64859E-03  3.07542E-19  1.09825E-02  0.00000E+00  1.0E-07
  6.000E+00  2.73905E-03  2.88147E-19  1.02899E-02  0.00000E+00  1.0E-07
  6.100E+00  2.83103E-03  2.70263E-19  9.65126E-03  0.00000E+00  1.0E-07
  6.200E+00  2.92452E-03  2.53751E-19  9.06160E-03  0.00000E+00  1.0E-07
  6.300E+00  3.01952E-03  2.38485E-19  8.51645E-03  0.00000E+00  1.0E-07
  6.400E+00  3.11604E-03  2.24350E-19  8.01167E-03  0.00000E+00  1.0E-07
  6.500E+00  3.21407E-03  2.11251E-19  7.54391E-03  0.00000E+00  1.0E-07
  6.600E+00  3.31362E-03  1.99099E-19  7.10995E-03  0.00000E+00  1.0E-07
  6.700E+00  3.41468E-03  1.87812E-19  6.70689E-03  0.00000E+00  1.0E-07
  6.800E+00  3.51725E-03  1.77314E-19  6.33201E-03  0.00000E+00  1.0E-07
  6.900E+00  3.62133E-03  1.67543E-19  5.98307E-03  0.00000E+00  1.0E-07
  7.000E+00  3.72692E-03  1.58439E-19  5.65797E-03  0.00000E+00  1.0E-07
  7.100E+00  3.83403E-03  1.49949E-19  5.35477E-03  0.00000E+00  1.0E-07
  7.200E+00  3.94265E-03  1.42021E-19  5.07165E-03  0.00000E+00  1.0E-07
  7.300E+00  4.05278E-03  1.34612E-19  4.80709E-03  0.00000E+00  1.0E-07
  7.400E+00  4.16442E-03  1.27683E-19  4.55965E-03  0.00000E+00  1.0E-07
  7.500E+00  4.27757E-03  1.21197E-19  4.32803E-03  0.00000E+00  1.0E-07
  7.600E+00  4.39223E-03  1.15119E-19  4.11099E-03  0.00000E+00  1.0E-07
  7.700E+00  4.50840E-03  1.09420E-19  3.90745E-03  0.00000E+00  1.0E-07
  7.800E+00  4.62608E-03  1.04071E-19  3.71643E-03  0.00000E+00  1.0E-07
  7.900E+00  4.74527E-03  9.90470E-20  3.53703E-03  0.00000E+00  1.0E-07
  8.000E+00  4.86597E-03  9.43244E-20  3.36839E-03  0.00000E+00  1.0E-07
  8.100E+00  4.98817E-03  8.98814E-20  3.20972E-03  0.00000E+00  1.0E-07
  8.200E+00  5.11188E-03  8.56989E-20  3.06036E-03  0.00000E+00  1.0E-07
  8.300E+00  5.23711E-03  8.17588E-20  2.91966E-03  0.00000E+00  1.0E-07
  8.400E+00  5.36383E-03  7.80442E-20  2.78701E-03  0.00000E+00  1.0E-07
  8.500E+00  5.49207E-03  7.45393E-20  2.66185E-03  0.00000E+00  1.0E-07
  8.600E+00  5.62181E-03  7.12306E-20  2.54369E-03  0.00000E+00  1.0E-07
  8.700E+00  5.75306E-03  6.81051E-20  2.43208E-03  0.00000E+00  1.0E-07
  8.800E+00  5.88581E-03  6.51507E-20  2.32657E-03  0.00000E+00  1.0E-07
  8.900E+00  6.02007E-03  6.23557E-20  2.22676E-03  0.00000E+00  1.0E-07
  9.000E+00  6.15583E-03  5.97104E-20  2.13230E-03  0.00000E+00  1.0E-07
  9.100E+00  6.29310E-03  5.72053E-20  2.04284E-03  0.00000E+00  1.0E-07
  9.200E+00  6.43187E-03  5.48314E-20  1.95807E-03  0.00000E+00  1.0E-07
  9.300E+00  6.57214E-03  5.25804E-20  1.87768E-03  0.00000E+00  1.0E-07
  9.400E+00  6.71392E-03  5.04448E-20  1.80142E-03  0.00000E+00  1.0E-07
  9.500E+00  6.85720E-03  4.84177E-20  1.72903E-03  0.00000E+00  1.0E-07
  9.600E+00  7.00198E-03  4.64926E-20  1.66028E-03  0.00000E+00  1.0E-07
  9.700E+00  7.14827E-03  4.46630E-20  1.59494E-03  0.00000E+00  1.0E-07
  9.800E+00  7.29605E-03  4.29235E-20  1.53282E-03  0.00000E+00  1.0E-07
  9.900E+00  7.44534E-03  4.12688E-20  1.47374E-03  0.00000E+00  1.0E-07
  1.000E+01  7.59612E-03  3.96940E-20  1.41750E-03  0.00000E+00  1.0E-07
  1.025E+01  7.97965E-03  3.60769E-20  1.28833E-03  0.00000E+00  1.0E-07
  1.050E+01  8.37255E-03  3.28672E-20  1.17371E-03  0.00000E+00  1.0E-07
  1.075E+01  8.77480E-03  3.00107E-20  1.07170E-03  0.00000E+00  1.0E-07
  1.100E+01  9.18641E-03  2.74617E-20  9.80674E-04  0.00000E+00  1.0E-07
  1.125E+01  9.60736E-03  2.51811E-20  8.99234E-04  0.00000E+00  1.0E-07
  1.150E+01  1.00376E-02  2.31357E-20  8.26190E-04  0.00000E+00  1.0E-07
  1.175E+01  1.04773E-02  2.12967E-20  7.60519E-04  0.00000E+00  1.0E-07
  1.200E+01  1.09262E-02  1.96395E-20  7.01341E-04  0.00000E+00  1.0E-07
  1.225E+01  1.13844E-02  1.81430E-20  6.47898E-04  0.00000E+00  1.0E-07
  1.250E+01  1.18520E-02  1.67886E-20  5.99532E-04  0.00000E+00  1.0E-07
  1.275E+01  1.23288E-02  1.55604E-20  5.55671E-04  0.00000E+00  1.0E-07
  1.300E+01  1.28150E-02  1.44444E-20  5.15819E-04  0.00000E+00  1.0E-07
  1.325E+01  1.33104E-02  1.34284E-20  4.79537E-04  0.00000E+00  1.0E-07
  1.350E+01  1.38150E-02  1.25020E-20  4.46455E-04  0.00000E+00  1.0E-07
  1.375E+01  1.43290E-02  1.16556E-20  4.16231E-04  0.00000E+00  1.0E-07
  1.400E+01  1.48521E-02  1.08811E-20  3.88572E-04  0.00000E+00  1.0E-07
  1.425E+01  1.53845E-02  1.01713E-20  3.63222E-04  0.00000E+00  1.0E-07
  1.450E+01  1.59262E-02  9.51963E-21  3.39952E-04  0.00000E+00  1.0E-07
  1.475E+01  1.64770E-02  8.92049E-21  3.18557E-04  0.00000E+00  1.0E-07
  1.500E+01  1.70371E-02  8.36883E-21  2.98856E-04  0.00000E+00  1.0E-07
  1.525E+01  1.76063E-02  7.86019E-21  2.80692E-04  0.00000E+00  1.0E-07
