 #
 # Subroutine ELSEPA. Elastic scattering of electrons and positrons
 #                    by neutral atoms and positive ions
 #
 # Projectile: electron
 # Kinetic energy = 3.70000E+06 eV = 1.35973E+05 a.u.
 #
 # WARNING: High-energy factorization with free-atom DF screening.
 #          Absorption, polarization and exchange corrections are
 #          switched off.
 #          Phase shifts are calculated for the bare nucleus.
 #          Scattering amplitudes are not evaluated.
 #
 # Element: Ru,  Z =  44,  atomic weight = 1.01070E+02 g/mol
 #
 # Nuclear model: Fermi distribution
 #                Average radius = 4.98415E-13 cm
 #                Skin thickness = 5.46000E-14 cm
 #
 # Number of electrons = 44
 #
 # Total elastic cross section = 4.23494E-18 cm**2 = 1.51232E-01 a0**2
 # 1st transport cross section = 1.69429E-22 cm**2 = 6.05043E-06 a0**2
 # 2nd transport cross section = 4.73074E-22 cm**2 = 1.68938E-05 a0**2
 #
 #
 # Differential cross section:                       MU=(1-COS(THETA))/2
 #
 #  THETA        MU          DCS          DCS        Sherman      error
 #  (deg)                 (cm**2/sr)   (a0**2/sr)    function
 #----------------------------------------------------------------------
  0.000E+00  0.00000E+00  6.03642E-13  2.15564E+04  0.00000E+00  1.0E-05
  1.000E-04  7.61557E-13  6.03639E-13  2.15564E+04  0.00000E+00  1.0E-05
  1.250E-04  1.18994E-12  6.03638E-13  2.15563E+04  0.00000E+00  1.0E-05
  1.500E-04  1.71346E-12  6.03636E-13  2.15562E+04  0.00000E+00  1.0E-05
  1.750E-04  2.33225E-12  6.03634E-13  2.15562E+04  0.00000E+00  1.0E-05
  2.000E-04  3.04617E-12  6.03631E-13  2.15561E+04  0.00000E+00  1.0E-05
  2.250E-04  3.85530E-12  6.03628E-13  2.15560E+04  0.00000E+00  1.0E-05
  2.500E-04  4.75964E-12  6.03625E-13  2.15558E+04  0.00000E+00  1.0E-05
  2.750E-04  5.75917E-12  6.03622E-13  2.15557E+04  0.00000E+00  1.0E-05
  3.000E-04  6.85391E-12  6.03618E-13  2.15556E+04  0.00000E+00  1.0E-05
  3.250E-04  8.04379E-12  6.03614E-13  2.15554E+04  0.00000E+00  1.0E-05
  3.500E-04  9.32893E-12  6.03609E-13  2.15553E+04  0.00000E+00  1.0E-05
  3.750E-04  1.07092E-11  6.03604E-13  2.15551E+04  0.00000E+00  1.0E-05
  4.000E-04  1.21847E-11  6.03599E-13  2.15549E+04  0.00000E+00  1.0E-05
  4.250E-04  1.37554E-11  6.03593E-13  2.15547E+04  0.00000E+00  1.0E-05
  4.500E-04  1.54213E-11  6.03587E-13  2.15545E+04  0.00000E+00  1.0E-05
  4.750E-04  1.71823E-11  6.03581E-13  2.15543E+04  0.00000E+00  1.0E-05
  5.000E-04  1.90386E-11  6.03575E-13  2.15540E+04  0.00000E+00  1.0E-05
  5.250E-04  2.09900E-11  6.03568E-13  2.15538E+04  0.00000E+00  1.0E-05
  5.500E-04  2.30367E-11  6.03560E-13  2.15535E+04  0.00000E+00  1.0E-05
  5.750E-04  2.51785E-11  6.03553E-13  2.15533E+04  0.00000E+00  1.0E-05
  6.000E-04  2.74156E-11  6.03545E-13  2.15530E+04  0.00000E+00  1.0E-05
  6.250E-04  2.97478E-11  6.03537E-13  2.15527E+04  0.00000E+00  1.0E-05
  6.500E-04  3.21752E-11  6.03528E-13  2.15524E+04  0.00000E+00  1.0E-05
  6.750E-04  3.46979E-11  6.03519E-13  2.15521E+04  0.00000E+00  1.0E-05
  7.000E-04  3.73157E-11  6.03510E-13  2.15517E+04  0.00000E+00  1.0E-05
  7.250E-04  4.00286E-11  6.03500E-13  2.15514E+04  0.00000E+00  1.0E-05
  7.500E-04  4.28368E-11  6.03490E-13  2.15510E+04  0.00000E+00  1.0E-05
  7.750E-04  4.57402E-11  6.03480E-13  2.15507E+04  0.00000E+00  1.0E-05
  8.000E-04  4.87388E-11  6.03469E-13  2.15503E+04  0.00000E+00  1.0E-05
  8.250E-04  5.18325E-11  6.03458E-13  2.15499E+04  0.00000E+00  1.0E-05
  8.500E-04  5.50215E-11  6.03447E-13  2.15495E+04  0.00000E+00  1.0E-05
  8.750E-04  5.83057E-11  6.03435E-13  2.15491E+04  0.00000E+00  1.0E-05
  9.000E-04  6.16850E-11  6.03423E-13  2.15486E+04  0.00000E+00  1.0E-05
  9.250E-04  6.51595E-11  6.03411E-13  2.15482E+04  0.00000E+00  1.0E-05
  9.500E-04  6.87293E-11  6.03398E-13  2.15477E+04  0.00000E+00  1.0E-05
  9.750E-04  7.23943E-11  6.03385E-13  2.15473E+04  0.00000E+00  1.0E-05
  1.000E-03  7.61544E-11  6.03371E-13  2.15468E+04  0.00000E+00  1.0E-05
  1.250E-03  1.18991E-10  6.03219E-13  2.15413E+04  0.00000E+00  1.0E-05
  1.500E-03  1.71347E-10  6.03033E-13  2.15347E+04  0.00000E+00  1.0E-05
  1.750E-03  2.33223E-10  6.02813E-13  2.15268E+04  0.00000E+00  1.0E-05
  2.000E-03  3.04617E-10  6.02560E-13  2.15178E+04  0.00000E+00  1.0E-05
  2.250E-03  3.85531E-10  6.02272E-13  2.15075E+04  0.00000E+00  1.0E-05
  2.500E-03  4.75965E-10  6.01952E-13  2.14961E+04  0.00000E+00  1.0E-05
  2.750E-03  5.75917E-10  6.01598E-13  2.14834E+04  0.00000E+00  1.0E-05
  3.000E-03  6.85389E-10  6.01210E-13  2.14696E+04  0.00000E+00  1.0E-05
  3.250E-03  8.04380E-10  6.00790E-13  2.14546E+04  0.00000E+00  1.0E-05
  3.500E-03  9.32891E-10  6.00336E-13  2.14384E+04  0.00000E+00  1.0E-05
  3.750E-03  1.07092E-09  5.99849E-13  2.14210E+04  0.00000E+00  1.0E-05
  4.000E-03  1.21847E-09  5.99330E-13  2.14025E+04  0.00000E+00  1.0E-05
  4.250E-03  1.37554E-09  5.98778E-13  2.13828E+04  0.00000E+00  1.0E-05
  4.500E-03  1.54213E-09  5.98194E-13  2.13619E+04  0.00000E+00  1.0E-05
  4.750E-03  1.71823E-09  5.97577E-13  2.13399E+04  0.00000E+00  1.0E-05
  5.000E-03  1.90386E-09  5.96929E-13  2.13167E+04  0.00000E+00  1.0E-05
  5.250E-03  2.09900E-09  5.96248E-13  2.12924E+04  0.00000E+00  1.0E-05
  5.500E-03  2.30367E-09  5.95536E-13  2.12670E+04  0.00000E+00  1.0E-05
  5.750E-03  2.51785E-09  5.94792E-13  2.12404E+04  0.00000E+00  1.0E-05
  6.000E-03  2.74156E-09  5.94018E-13  2.12128E+04  0.00000E+00  1.0E-05
  6.250E-03  2.97478E-09  5.93212E-13  2.11840E+04  0.00000E+00  1.0E-05
  6.500E-03  3.21752E-09  5.92375E-13  2.11541E+04  0.00000E+00  1.0E-05
  6.750E-03  3.46978E-09  5.91508E-13  2.11231E+04  0.00000E+00  1.0E-05
  7.000E-03  3.73156E-09  5.90611E-13  2.10911E+04  0.00000E+00  1.0E-05
  7.250E-03  4.00286E-09  5.89684E-13  2.10580E+04  0.00000E+00  1.0E-05
  7.500E-03  4.28368E-09  5.88727E-13  2.10238E+04  0.00000E+00  1.0E-05
  7.750E-03  4.57402E-09  5.87741E-13  2.09886E+04  0.00000E+00  1.0E-05
  8.000E-03  4.87388E-09  5.86725E-13  2.09523E+04  0.00000E+00  1.0E-05
  8.250E-03  5.18326E-09  5.85681E-13  2.09151E+04  0.00000E+00  1.0E-05
  8.500E-03  5.50215E-09  5.84609E-13  2.08768E+04  0.00000E+00  1.0E-05
  8.750E-03  5.83057E-09  5.83508E-13  2.08374E+04  0.00000E+00  1.0E-05
  9.000E-03  6.16850E-09  5.82379E-13  2.07971E+04  0.00000E+00  1.0E-05
  9.250E-03  6.51596E-09  5.81223E-13  2.07558E+04  0.00000E+00  1.0E-05
  9.500E-03  6.87293E-09  5.80039E-13  2.07136E+04  0.00000E+00  1.0E-05
  9.750E-03  7.23942E-09  5.78828E-13  2.06703E+04  0.00000E+00  1.0E-05
  1.000E-02  7.61544E-09  5.77591E-13  2.06262E+04  0.00000E+00  1.0E-05
  1.250E-02  1.18991E-08  5.63840E-13  2.01351E+04  0.00000E+00  1.0E-05
  1.500E-02  1.71347E-08  5.47810E-13  1.95626E+04  0.00000E+00  1.0E-05
  1.750E-02  2.33223E-08  5.29968E-13  1.89255E+04  0.00000E+00  1.0E-05
  2.000E-02  3.04617E-08  5.10724E-13  1.82383E+04  0.00000E+00  1.0E-05
  2.250E-02  3.85531E-08  4.90421E-13  1.75133E+04  0.00000E+00  1.0E-05
  2.500E-02  4.75965E-08  4.69445E-13  1.67642E+04  0.00000E+00  1.0E-05
  2.750E-02  5.75917E-08  4.48185E-13  1.60050E+04  0.00000E+00  1.0E-05
  3.000E-02  6.85389E-08  4.26945E-13  1.52465E+04  0.00000E+00  1.0E-05
  3.250E-02  8.04380E-08  4.05916E-13  1.44955E+04  0.00000E+00  1.0E-05
  3.500E-02  9.32891E-08  3.85270E-13  1.37582E+04  0.00000E+00  1.0E-05
  3.750E-02  1.07092E-07  3.65247E-13  1.30432E+04  0.00000E+00  1.0E-05
  4.000E-02  1.21847E-07  3.45963E-13  1.23546E+04  0.00000E+00  1.0E-05
  4.250E-02  1.37554E-07  3.27469E-13  1.16941E+04  0.00000E+00  1.0E-05
  4.500E-02  1.54213E-07  3.09733E-13  1.10608E+04  0.00000E+00  1.0E-05
  4.750E-02  1.71823E-07  2.92893E-13  1.04594E+04  0.00000E+00  1.0E-05
  5.000E-02  1.90386E-07  2.76952E-13  9.89013E+03  0.00000E+00  1.0E-05
  5.250E-02  2.09900E-07  2.61897E-13  9.35252E+03  0.00000E+00  1.0E-05
  5.500E-02  2.30367E-07  2.47587E-13  8.84150E+03  0.00000E+00  1.0E-05
  5.750E-02  2.51785E-07  2.34119E-13  8.36052E+03  0.00000E+00  1.0E-05
  6.000E-02  2.74156E-07  2.21456E-13  7.90832E+03  0.00000E+00  1.0E-05
  6.250E-02  2.97478E-07  2.09558E-13  7.48346E+03  0.00000E+00  1.0E-05
  6.500E-02  3.21752E-07  1.98300E-13  7.08142E+03  0.00000E+00  1.0E-05
  6.750E-02  3.46978E-07  1.87712E-13  6.70332E+03  0.00000E+00  1.0E-05
  7.000E-02  3.73156E-07  1.77773E-13  6.34840E+03  0.00000E+00  1.0E-05
  7.250E-02  4.00286E-07  1.68442E-13  6.01517E+03  0.00000E+00  1.0E-05
  7.500E-02  4.28368E-07  1.59627E-13  5.70037E+03  0.00000E+00  1.0E-05
  7.750E-02  4.57402E-07  1.51317E-13  5.40363E+03  0.00000E+00  1.0E-05
  8.000E-02  4.87388E-07  1.43511E-13  5.12487E+03  0.00000E+00  1.0E-05
  8.250E-02  5.18325E-07  1.36175E-13  4.86289E+03  0.00000E+00  1.0E-05
  8.500E-02  5.50215E-07  1.29248E-13  4.61553E+03  0.00000E+00  1.0E-05
  8.750E-02  5.83057E-07  1.22697E-13  4.38157E+03  0.00000E+00  1.0E-05
  9.000E-02  6.16850E-07  1.16533E-13  4.16148E+03  0.00000E+00  1.0E-05
  9.250E-02  6.51596E-07  1.10731E-13  3.95429E+03  0.00000E+00  1.0E-05
  9.500E-02  6.87293E-07  1.05255E-13  3.75872E+03  0.00000E+00  1.0E-05
  9.750E-02  7.23942E-07  1.00058E-13  3.57313E+03  0.00000E+00  1.0E-05
  1.000E-01  7.61543E-07  9.51604E-14  3.39824E+03  0.00000E+00  1.0E-05
  1.250E-01  1.18991E-06  5.86746E-14  2.09531E+03  0.00000E+00  1.0E-05
  1.500E-01  1.71347E-06  3.68328E-14  1.31532E+03  0.00000E+00  1.0E-05
  1.750E-01  2.33223E-06  2.43287E-14  8.68792E+02  0.00000E+00  1.0E-05
  2.000E-01  3.04617E-06  1.66023E-14  5.92880E+02  0.00000E+00  1.0E-05
  2.250E-01  3.85531E-06  1.16401E-14  4.15675E+02  0.00000E+00  1.0E-05
  2.500E-01  4.75964E-06  8.42578E-15  3.00890E+02  0.00000E+00  1.0E-05
  2.750E-01  5.75916E-06  6.28570E-15  2.24466E+02  0.00000E+00  1.0E-05
  3.000E-01  6.85388E-06  4.81198E-15  1.71839E+02  0.00000E+00  1.0E-05
  3.250E-01  8.04378E-06  3.76240E-15  1.34358E+02  0.00000E+00  1.0E-05
  3.500E-01  9.32888E-06  2.99256E-15  1.06866E+02  0.00000E+00  1.0E-05
  3.750E-01  1.07092E-05  2.41739E-15  8.63267E+01  0.00000E+00  1.0E-05
  4.000E-01  1.21846E-05  1.97796E-15  7.06343E+01  0.00000E+00  1.0E-05
  4.250E-01  1.37553E-05  1.63467E-15  5.83750E+01  0.00000E+00  1.0E-05
  4.500E-01  1.54212E-05  1.36020E-15  4.85738E+01  0.00000E+00  1.0E-05
  4.750E-01  1.71822E-05  1.14067E-15  4.07340E+01  0.00000E+00  1.0E-05
  5.000E-01  1.90385E-05  9.62836E-16  3.43835E+01  0.00000E+00  1.0E-05
  5.250E-01  2.09899E-05  8.17892E-16  2.92075E+01  0.00000E+00  1.0E-05
  5.500E-01  2.30365E-05  6.97262E-16  2.48997E+01  0.00000E+00  1.0E-05
  5.750E-01  2.51783E-05  5.97529E-16  2.13382E+01  0.00000E+00  1.0E-05
  6.000E-01  2.74153E-05  5.14522E-16  1.83739E+01  0.00000E+00  1.0E-05
  6.250E-01  2.97475E-05  4.45050E-16  1.58930E+01  0.00000E+00  1.0E-05
  6.500E-01  3.21749E-05  3.86417E-16  1.37992E+01  0.00000E+00  1.0E-05
  6.750E-01  3.46974E-05  3.36880E-16  1.20302E+01  0.00000E+00  1.0E-05
  7.000E-01  3.73152E-05  2.94939E-16  1.05325E+01  0.00000E+00  1.0E-05
  7.250E-01  4.00281E-05  2.59285E-16  9.25923E+00  0.00000E+00  1.0E-05
  7.500E-01  4.28362E-05  2.28788E-16  8.17017E+00  0.00000E+00  1.0E-05
  7.750E-01  4.57395E-05  2.02633E-16  7.23617E+00  0.00000E+00  1.0E-05
  8.000E-01  4.87380E-05  1.80126E-16  6.43241E+00  0.00000E+00  1.0E-05
  8.250E-01  5.18317E-05  1.60671E-16  5.73767E+00  0.00000E+00  1.0E-05
  8.500E-01  5.50205E-05  1.43775E-16  5.13430E+00  0.00000E+00  1.0E-05
  8.750E-01  5.83045E-05  1.29048E-16  4.60837E+00  0.00000E+00  1.0E-05
  9.000E-01  6.16838E-05  1.16180E-16  4.14885E+00  0.00000E+00  1.0E-05
  9.250E-01  6.51582E-05  1.04897E-16  3.74594E+00  0.00000E+00  1.0E-05
  9.500E-01  6.87277E-05  9.49675E-17  3.39135E+00  0.00000E+00  1.0E-05
  9.750E-01  7.23925E-05  8.61964E-17  3.07813E+00  0.00000E+00  1.0E-05
  1.000E+00  7.61524E-05  7.84324E-17  2.80087E+00  0.00000E+00  3.5E-06
  1.100E+00  9.21439E-05  5.49886E-17  1.96368E+00  0.00000E+00  2.6E-06
  1.200E+00  1.09658E-04  3.97652E-17  1.42004E+00  0.00000E+00  1.4E-06
  1.300E+00  1.28695E-04  2.94936E-17  1.05323E+00  0.00000E+00  2.9E-07
  1.400E+00  1.49255E-04  2.23291E-17  7.97387E-01  0.00000E+00  5.6E-07
  1.500E+00  1.71338E-04  1.72252E-17  6.15122E-01  0.00000E+00  1.0E-06
  1.600E+00  1.94942E-04  1.34998E-17  4.82085E-01  0.00000E+00  1.1E-06
  1.700E+00  2.20070E-04  1.07245E-17  3.82977E-01  0.00000E+00  8.7E-07
  1.800E+00  2.46720E-04  8.62031E-18  3.07837E-01  0.00000E+00  4.9E-07
  1.900E+00  2.74892E-04  7.00657E-18  2.50209E-01  0.00000E+00  1.0E-07
  2.000E+00  3.04586E-04  5.75233E-18  2.05419E-01  0.00000E+00  2.6E-07
  2.100E+00  3.35803E-04  4.76559E-18  1.70182E-01  0.00000E+00  4.5E-07
  2.200E+00  3.68542E-04  3.97962E-18  1.42115E-01  0.00000E+00  4.9E-07
  2.300E+00  4.02802E-04  3.34909E-18  1.19598E-01  0.00000E+00  4.0E-07
  2.400E+00  4.38585E-04  2.83853E-18  1.01366E-01  0.00000E+00  2.2E-07
  2.500E+00  4.75889E-04  2.42163E-18  8.64778E-02  0.00000E+00  1.0E-07
  2.600E+00  5.14715E-04  2.07820E-18  7.42139E-02  0.00000E+00  1.5E-07
  2.700E+00  5.55063E-04  1.79362E-18  6.40515E-02  0.00000E+00  2.5E-07
  2.800E+00  5.96931E-04  1.55622E-18  5.55736E-02  0.00000E+00  2.7E-07
  2.900E+00  6.40321E-04  1.35690E-18  4.84557E-02  0.00000E+00  2.2E-07
  3.000E+00  6.85233E-04  1.18851E-18  4.24423E-02  0.00000E+00  1.2E-07
  3.100E+00  7.31665E-04  1.04550E-18  3.73354E-02  0.00000E+00  1.0E-07
  3.200E+00  7.79618E-04  9.23442E-19  3.29767E-02  0.00000E+00  1.0E-07
  3.300E+00  8.29092E-04  8.18751E-19  2.92381E-02  0.00000E+00  1.5E-07
  3.400E+00  8.80086E-04  7.28528E-19  2.60162E-02  0.00000E+00  1.7E-07
  3.500E+00  9.32601E-04  6.50428E-19  2.32272E-02  0.00000E+00  1.3E-07
  3.600E+00  9.86636E-04  5.82565E-19  2.08038E-02  0.00000E+00  1.0E-07
  3.700E+00  1.04219E-03  5.23366E-19  1.86898E-02  0.00000E+00  1.0E-07
  3.800E+00  1.09927E-03  4.71528E-19  1.68386E-02  0.00000E+00  1.0E-07
  3.900E+00  1.15786E-03  4.25969E-19  1.52116E-02  0.00000E+00  1.0E-07
  4.000E+00  1.21797E-03  3.85809E-19  1.37775E-02  0.00000E+00  1.1E-07
  4.100E+00  1.27961E-03  3.50294E-19  1.25092E-02  0.00000E+00  1.0E-07
  4.200E+00  1.34276E-03  3.18791E-19  1.13842E-02  0.00000E+00  1.0E-07
  4.300E+00  1.40743E-03  2.90760E-19  1.03832E-02  0.00000E+00  1.0E-07
  4.400E+00  1.47362E-03  2.65759E-19  9.49041E-03  0.00000E+00  1.0E-07
  4.500E+00  1.54133E-03  2.43400E-19  8.69197E-03  0.00000E+00  1.0E-07
  4.600E+00  1.61056E-03  2.23355E-19  7.97616E-03  0.00000E+00  1.0E-07
  4.700E+00  1.68131E-03  2.05337E-19  7.33273E-03  0.00000E+00  1.0E-07
  4.800E+00  1.75357E-03  1.89108E-19  6.75317E-03  0.00000E+00  1.0E-07
  4.900E+00  1.82735E-03  1.74459E-19  6.23003E-03  0.00000E+00  1.0E-07
  5.000E+00  1.90265E-03  1.61207E-19  5.75682E-03  0.00000E+00  1.0E-07
  5.100E+00  1.97947E-03  1.49194E-19  5.32783E-03  0.00000E+00  1.0E-07
  5.200E+00  2.05780E-03  1.38284E-19  4.93822E-03  0.00000E+00  1.0E-07
  5.300E+00  2.13765E-03  1.28358E-19  4.58375E-03  0.00000E+00  1.0E-07
  5.400E+00  2.21902E-03  1.19311E-19  4.26067E-03  0.00000E+00  1.0E-07
  5.500E+00  2.30190E-03  1.11050E-19  3.96565E-03  0.00000E+00  1.0E-07
  5.600E+00  2.38630E-03  1.03494E-19  3.69582E-03  0.00000E+00  1.0E-07
  5.700E+00  2.47222E-03  9.65725E-20  3.44867E-03  0.00000E+00  1.0E-07
  5.800E+00  2.55965E-03  9.02231E-20  3.22193E-03  0.00000E+00  1.0E-07
  5.900E+00  2.64859E-03  8.43892E-20  3.01359E-03  0.00000E+00  1.0E-07
  6.000E+00  2.73905E-03  7.90206E-20  2.82188E-03  0.00000E+00  1.0E-07
  6.100E+00  2.83103E-03  7.40743E-20  2.64524E-03  0.00000E+00  1.0E-07
  6.200E+00  2.92452E-03  6.95108E-20  2.48228E-03  0.00000E+00  1.0E-07
  6.300E+00  3.01952E-03  6.52951E-20  2.33173E-03  0.00000E+00  1.0E-07
  6.400E+00  3.11604E-03  6.13949E-20  2.19245E-03  0.00000E+00  1.0E-07
  6.500E+00  3.21407E-03  5.77831E-20  2.06347E-03  0.00000E+00  1.0E-07
  6.600E+00  3.31362E-03  5.44343E-20  1.94388E-03  0.00000E+00  1.0E-07
  6.700E+00  3.41468E-03  5.13258E-20  1.83288E-03  0.00000E+00  1.0E-07
  6.800E+00  3.51725E-03  4.84367E-20  1.72971E-03  0.00000E+00  1.0E-07
  6.900E+00  3.62133E-03  4.57491E-20  1.63373E-03  0.00000E+00  1.0E-07
  7.000E+00  3.72692E-03  4.32462E-20  1.54435E-03  0.00000E+00  1.0E-07
  7.100E+00  3.83403E-03  4.09131E-20  1.46103E-03  0.00000E+00  1.0E-07
  7.200E+00  3.94265E-03  3.87358E-20  1.38328E-03  0.00000E+00  1.0E-07
  7.300E+00  4.05278E-03  3.67020E-20  1.31065E-03  0.00000E+00  1.0E-07
  7.400E+00  4.16442E-03  3.48007E-20  1.24276E-03  0.00000E+00  1.0E-07
  7.500E+00  4.27757E-03  3.30217E-20  1.17922E-03  0.00000E+00  1.0E-07
  7.600E+00  4.39223E-03  3.13553E-20  1.11972E-03  0.00000E+00  1.0E-07
  7.700E+00  4.50840E-03  2.97932E-20  1.06393E-03  0.00000E+00  1.0E-07
  7.800E+00  4.62608E-03  2.83277E-20  1.01160E-03  0.00000E+00  1.0E-07
  7.900E+00  4.74527E-03  2.69518E-20  9.62465E-04  0.00000E+00  1.0E-07
  8.000E+00  4.86597E-03  2.56588E-20  9.16291E-04  0.00000E+00  1.0E-07
  8.100E+00  4.98817E-03  2.44427E-20  8.72865E-04  0.00000E+00  1.0E-07
  8.200E+00  5.11188E-03  2.32983E-20  8.31996E-04  0.00000E+00  1.0E-07
  8.300E+00  5.23711E-03  2.22204E-20  7.93506E-04  0.00000E+00  1.0E-07
  8.400E+00  5.36383E-03  2.12046E-20  7.57229E-04  0.00000E+00  1.0E-07
  8.500E+00  5.49207E-03  2.02463E-20  7.23010E-04  0.00000E+00  1.0E-07
  8.600E+00  5.62181E-03  1.93420E-20  6.90715E-04  0.00000E+00  1.0E-07
  8.700E+00  5.75306E-03  1.84879E-20  6.60213E-04  0.00000E+00  1.0E-07
  8.800E+00  5.88581E-03  1.76807E-20  6.31388E-04  0.00000E+00  1.0E-07
  8.900E+00  6.02007E-03  1.69173E-20  6.04126E-04  0.00000E+00  1.0E-07
  9.000E+00  6.15583E-03  1.61949E-20  5.78329E-04  0.00000E+00  1.0E-07
  9.100E+00  6.29310E-03  1.55109E-20  5.53903E-04  0.00000E+00  1.0E-07
  9.200E+00  6.43187E-03  1.48629E-20  5.30762E-04  0.00000E+00  1.0E-07
  9.300E+00  6.57214E-03  1.42485E-20  5.08823E-04  0.00000E+00  1.0E-07
  9.400E+00  6.71392E-03  1.36658E-20  4.88013E-04  0.00000E+00  1.0E-07
  9.500E+00  6.85720E-03  1.31127E-20  4.68264E-04  0.00000E+00  1.0E-07
  9.600E+00  7.00198E-03  1.25876E-20  4.49510E-04  0.00000E+00  1.0E-07
  9.700E+00  7.14827E-03  1.20886E-20  4.31692E-04  0.00000E+00  1.0E-07
  9.800E+00  7.29605E-03  1.16143E-20  4.14753E-04  0.00000E+00  1.0E-07
  9.900E+00  7.44534E-03  1.11632E-20  3.98643E-04  0.00000E+00  1.0E-07
  1.000E+01  7.59612E-03  1.07339E-20  3.83314E-04  0.00000E+00  1.0E-07
  1.025E+01  7.97965E-03  9.74817E-21  3.48113E-04  0.00000E+00  1.0E-07
  1.050E+01  8.37255E-03  8.87379E-21  3.16889E-04  0.00000E+00  1.0E-07
  1.075E+01  8.77480E-03  8.09594E-21  2.89111E-04  0.00000E+00  1.0E-07
  1.100E+01  9.18641E-03  7.40208E-21  2.64333E-04  0.00000E+00  1.0E-07
  1.125E+01  9.60736E-03  6.78152E-21  2.42173E-04  0.00000E+00  1.0E-07
  1.150E+01  1.00376E-02  6.22513E-21  2.22303E-04  0.00000E+00  1.0E-07
  1.175E+01  1.04773E-02  5.72508E-21  2.04446E-04  0.00000E+00  1.0E-07
  1.200E+01  1.09262E-02  5.27464E-21  1.88361E-04  0.00000E+00  1.0E-07
  1.225E+01  1.13844E-02  4.86799E-21  1.73839E-04  0.00000E+00  1.0E-07
  1.250E+01  1.18520E-02  4.50011E-21  1.60702E-04  0.00000E+00  1.0E-07
  1.275E+01  1.23288E-02  4.16661E-21  1.48793E-04  0.00000E+00  1.0E-07
  1.300E+01  1.28150E-02  3.86372E-21  1.37976E-04  0.00000E+00  1.0E-07
  1.325E+01  1.33104E-02  3.58808E-21  1.28133E-04  0.00000E+00  1.0E-07
  1.350E+01  1.38150E-02  3.33682E-21  1.19160E-04  0.00000E+00  1.0E-07
  1.375E+01  1.43290E-02  3.10737E-21  1.10966E-04  0.00000E+00  1.0E-07
  1.400E+01  1.48521E-02  2.89749E-21  1.03471E-04  0.00000E+00  1.0E-07
  1.425E+01  1.53845E-02  2.70520E-21  9.66044E-05  0.00000E+00  1.0E-07
  1.450E+01  1.59262E-02  2.52876E-21  9.03035E-05  0.00000E+00  1.0E-07
  1.475E+01  1.64770E-02  2.36660E-21  8.45130E-05  0.00000E+00  1.0E-07
  1.500E+01  1.70371E-02  2.21737E-21  7.91837E-05  0.00000E+00  1.0E-07
  1.525E+01  1.76063E-02  2.07984E-21  7.42723E-05  0.00000E+00  1.0E-07
