 #
 # Subroutine ELSEPA. Elastic scattering of electrons and positrons
 #                    by neutral atoms and positive ions
 #
 # Projectile: electron
 # Kinetic energy = 3.70000E+06 eV = 1.35973E+05 a.u.
 #
 # WARNING: High-energy factorization with free-atom DF screening.
 #          Absorption, polarization and exchange corrections are
 #          switched off.
 #          Phase shifts are calculated for the bare nucleus.
 #          Scattering amplitudes are not evaluated.
 #
 # Element: Sb,  Z =  51,  atomic weight = 1.21760E+02 g/mol
 #
 # Nuclear model: Fermi distribution
 #                Average radius = 5.30337E-13 cm
 #                Skin thickness = 5.46000E-14 cm
 #
 # Number of electrons = 51
 #
 # Total elastic cross section = 5.40328E-18 cm**2 = 1.92955E-01 a0**2
 # 1st transport cross section = 2.29990E-22 cm**2 = 8.21310E-06 a0**2
 # 2nd transport cross section = 6.37865E-22 cm**2 = 2.27786E-05 a0**2
 #
 #
 # Differential cross section:                       MU=(1-COS(THETA))/2
 #
 #  THETA        MU          DCS          DCS        Sherman      error
 #  (deg)                 (cm**2/sr)   (a0**2/sr)    function
 #----------------------------------------------------------------------
  0.000E+00  0.00000E+00  8.04746E-13  2.87380E+04  0.00000E+00  1.0E-05
  1.000E-04  7.61557E-13  8.04743E-13  2.87379E+04  0.00000E+00  1.0E-05
  1.250E-04  1.18994E-12  8.04741E-13  2.87378E+04  0.00000E+00  1.0E-05
  1.500E-04  1.71346E-12  8.04739E-13  2.87378E+04  0.00000E+00  1.0E-05
  1.750E-04  2.33225E-12  8.04736E-13  2.87377E+04  0.00000E+00  1.0E-05
  2.000E-04  3.04617E-12  8.04733E-13  2.87376E+04  0.00000E+00  1.0E-05
  2.250E-04  3.85530E-12  8.04730E-13  2.87374E+04  0.00000E+00  1.0E-05
  2.500E-04  4.75964E-12  8.04726E-13  2.87373E+04  0.00000E+00  1.0E-05
  2.750E-04  5.75917E-12  8.04722E-13  2.87371E+04  0.00000E+00  1.0E-05
  3.000E-04  6.85391E-12  8.04717E-13  2.87370E+04  0.00000E+00  1.0E-05
  3.250E-04  8.04379E-12  8.04712E-13  2.87368E+04  0.00000E+00  1.0E-05
  3.500E-04  9.32893E-12  8.04707E-13  2.87366E+04  0.00000E+00  1.0E-05
  3.750E-04  1.07092E-11  8.04701E-13  2.87364E+04  0.00000E+00  1.0E-05
  4.000E-04  1.21847E-11  8.04694E-13  2.87362E+04  0.00000E+00  1.0E-05
  4.250E-04  1.37554E-11  8.04688E-13  2.87359E+04  0.00000E+00  1.0E-05
  4.500E-04  1.54213E-11  8.04681E-13  2.87357E+04  0.00000E+00  1.0E-05
  4.750E-04  1.71823E-11  8.04673E-13  2.87354E+04  0.00000E+00  1.0E-05
  5.000E-04  1.90386E-11  8.04665E-13  2.87351E+04  0.00000E+00  1.0E-05
  5.250E-04  2.09900E-11  8.04657E-13  2.87348E+04  0.00000E+00  1.0E-05
  5.500E-04  2.30367E-11  8.04648E-13  2.87345E+04  0.00000E+00  1.0E-05
  5.750E-04  2.51785E-11  8.04639E-13  2.87342E+04  0.00000E+00  1.0E-05
  6.000E-04  2.74156E-11  8.04629E-13  2.87338E+04  0.00000E+00  1.0E-05
  6.250E-04  2.97478E-11  8.04619E-13  2.87335E+04  0.00000E+00  1.0E-05
  6.500E-04  3.21752E-11  8.04609E-13  2.87331E+04  0.00000E+00  1.0E-05
  6.750E-04  3.46979E-11  8.04598E-13  2.87327E+04  0.00000E+00  1.0E-05
  7.000E-04  3.73157E-11  8.04587E-13  2.87323E+04  0.00000E+00  1.0E-05
  7.250E-04  4.00286E-11  8.04575E-13  2.87319E+04  0.00000E+00  1.0E-05
  7.500E-04  4.28368E-11  8.04563E-13  2.87315E+04  0.00000E+00  1.0E-05
  7.750E-04  4.57402E-11  8.04550E-13  2.87310E+04  0.00000E+00  1.0E-05
  8.000E-04  4.87388E-11  8.04538E-13  2.87306E+04  0.00000E+00  1.0E-05
  8.250E-04  5.18325E-11  8.04524E-13  2.87301E+04  0.00000E+00  1.0E-05
  8.500E-04  5.50215E-11  8.04511E-13  2.87296E+04  0.00000E+00  1.0E-05
  8.750E-04  5.83057E-11  8.04496E-13  2.87291E+04  0.00000E+00  1.0E-05
  9.000E-04  6.16850E-11  8.04482E-13  2.87286E+04  0.00000E+00  1.0E-05
  9.250E-04  6.51595E-11  8.04467E-13  2.87280E+04  0.00000E+00  1.0E-05
  9.500E-04  6.87293E-11  8.04452E-13  2.87275E+04  0.00000E+00  1.0E-05
  9.750E-04  7.23943E-11  8.04436E-13  2.87269E+04  0.00000E+00  1.0E-05
  1.000E-03  7.61544E-11  8.04420E-13  2.87264E+04  0.00000E+00  1.0E-05
  1.250E-03  1.18991E-10  8.04236E-13  2.87198E+04  0.00000E+00  1.0E-05
  1.500E-03  1.71347E-10  8.04011E-13  2.87118E+04  0.00000E+00  1.0E-05
  1.750E-03  2.33223E-10  8.03746E-13  2.87023E+04  0.00000E+00  1.0E-05
  2.000E-03  3.04617E-10  8.03439E-13  2.86913E+04  0.00000E+00  1.0E-05
  2.250E-03  3.85531E-10  8.03092E-13  2.86789E+04  0.00000E+00  1.0E-05
  2.500E-03  4.75965E-10  8.02705E-13  2.86651E+04  0.00000E+00  1.0E-05
  2.750E-03  5.75917E-10  8.02277E-13  2.86498E+04  0.00000E+00  1.0E-05
  3.000E-03  6.85389E-10  8.01808E-13  2.86331E+04  0.00000E+00  1.0E-05
  3.250E-03  8.04380E-10  8.01300E-13  2.86149E+04  0.00000E+00  1.0E-05
  3.500E-03  9.32891E-10  8.00751E-13  2.85953E+04  0.00000E+00  1.0E-05
  3.750E-03  1.07092E-09  8.00162E-13  2.85743E+04  0.00000E+00  1.0E-05
  4.000E-03  1.21847E-09  7.99533E-13  2.85518E+04  0.00000E+00  1.0E-05
  4.250E-03  1.37554E-09  7.98865E-13  2.85280E+04  0.00000E+00  1.0E-05
  4.500E-03  1.54213E-09  7.98157E-13  2.85027E+04  0.00000E+00  1.0E-05
  4.750E-03  1.71823E-09  7.97409E-13  2.84760E+04  0.00000E+00  1.0E-05
  5.000E-03  1.90386E-09  7.96623E-13  2.84479E+04  0.00000E+00  1.0E-05
  5.250E-03  2.09900E-09  7.95797E-13  2.84184E+04  0.00000E+00  1.0E-05
  5.500E-03  2.30367E-09  7.94933E-13  2.83876E+04  0.00000E+00  1.0E-05
  5.750E-03  2.51785E-09  7.94029E-13  2.83553E+04  0.00000E+00  1.0E-05
  6.000E-03  2.74156E-09  7.93088E-13  2.83217E+04  0.00000E+00  1.0E-05
  6.250E-03  2.97478E-09  7.92108E-13  2.82867E+04  0.00000E+00  1.0E-05
  6.500E-03  3.21752E-09  7.91090E-13  2.82504E+04  0.00000E+00  1.0E-05
  6.750E-03  3.46978E-09  7.90035E-13  2.82127E+04  0.00000E+00  1.0E-05
  7.000E-03  3.73156E-09  7.88942E-13  2.81736E+04  0.00000E+00  1.0E-05
  7.250E-03  4.00286E-09  7.87812E-13  2.81333E+04  0.00000E+00  1.0E-05
  7.500E-03  4.28368E-09  7.86645E-13  2.80916E+04  0.00000E+00  1.0E-05
  7.750E-03  4.57402E-09  7.85441E-13  2.80486E+04  0.00000E+00  1.0E-05
  8.000E-03  4.87388E-09  7.84201E-13  2.80043E+04  0.00000E+00  1.0E-05
  8.250E-03  5.18326E-09  7.82924E-13  2.79587E+04  0.00000E+00  1.0E-05
  8.500E-03  5.50215E-09  7.81612E-13  2.79119E+04  0.00000E+00  1.0E-05
  8.750E-03  5.83057E-09  7.80264E-13  2.78637E+04  0.00000E+00  1.0E-05
  9.000E-03  6.16850E-09  7.78881E-13  2.78144E+04  0.00000E+00  1.0E-05
  9.250E-03  6.51596E-09  7.77463E-13  2.77637E+04  0.00000E+00  1.0E-05
  9.500E-03  6.87293E-09  7.76011E-13  2.77119E+04  0.00000E+00  1.0E-05
  9.750E-03  7.23942E-09  7.74524E-13  2.76588E+04  0.00000E+00  1.0E-05
  1.000E-02  7.61544E-09  7.73003E-13  2.76045E+04  0.00000E+00  1.0E-05
  1.250E-02  1.18991E-08  7.56008E-13  2.69975E+04  0.00000E+00  1.0E-05
  1.500E-02  1.71347E-08  7.35936E-13  2.62807E+04  0.00000E+00  1.0E-05
  1.750E-02  2.33223E-08  7.13372E-13  2.54750E+04  0.00000E+00  1.0E-05
  2.000E-02  3.04617E-08  6.88755E-13  2.45959E+04  0.00000E+00  1.0E-05
  2.250E-02  3.85531E-08  6.62375E-13  2.36538E+04  0.00000E+00  1.0E-05
  2.500E-02  4.75965E-08  6.34703E-13  2.26657E+04  0.00000E+00  1.0E-05
  2.750E-02  5.75917E-08  6.06295E-13  2.16512E+04  0.00000E+00  1.0E-05
  3.000E-02  6.85389E-08  5.77557E-13  2.06249E+04  0.00000E+00  1.0E-05
  3.250E-02  8.04380E-08  5.48701E-13  1.95945E+04  0.00000E+00  1.0E-05
  3.500E-02  9.32891E-08  5.19969E-13  1.85684E+04  0.00000E+00  1.0E-05
  3.750E-02  1.07092E-07  4.91832E-13  1.75636E+04  0.00000E+00  1.0E-05
  4.000E-02  1.21847E-07  4.64498E-13  1.65875E+04  0.00000E+00  1.0E-05
  4.250E-02  1.37554E-07  4.38064E-13  1.56435E+04  0.00000E+00  1.0E-05
  4.500E-02  1.54213E-07  4.12502E-13  1.47307E+04  0.00000E+00  1.0E-05
  4.750E-02  1.71823E-07  3.88141E-13  1.38608E+04  0.00000E+00  1.0E-05
  5.000E-02  1.90386E-07  3.65023E-13  1.30352E+04  0.00000E+00  1.0E-05
  5.250E-02  2.09900E-07  3.43163E-13  1.22546E+04  0.00000E+00  1.0E-05
  5.500E-02  2.30367E-07  3.22377E-13  1.15123E+04  0.00000E+00  1.0E-05
  5.750E-02  2.51785E-07  3.02865E-13  1.08155E+04  0.00000E+00  1.0E-05
  6.000E-02  2.74156E-07  2.84588E-13  1.01628E+04  0.00000E+00  1.0E-05
  6.250E-02  2.97478E-07  2.67495E-13  9.55241E+03  0.00000E+00  1.0E-05
  6.500E-02  3.21752E-07  2.51433E-13  8.97885E+03  0.00000E+00  1.0E-05
  6.750E-02  3.46978E-07  2.36446E-13  8.44363E+03  0.00000E+00  1.0E-05
  7.000E-02  3.73156E-07  2.22490E-13  7.94527E+03  0.00000E+00  1.0E-05
  7.250E-02  4.00286E-07  2.09502E-13  7.48144E+03  0.00000E+00  1.0E-05
  7.500E-02  4.28368E-07  1.97367E-13  7.04812E+03  0.00000E+00  1.0E-05
  7.750E-02  4.57402E-07  1.86058E-13  6.64427E+03  0.00000E+00  1.0E-05
  8.000E-02  4.87388E-07  1.75545E-13  6.26881E+03  0.00000E+00  1.0E-05
  8.250E-02  5.18325E-07  1.65767E-13  5.91964E+03  0.00000E+00  1.0E-05
  8.500E-02  5.50215E-07  1.56648E-13  5.59398E+03  0.00000E+00  1.0E-05
  8.750E-02  5.83057E-07  1.48134E-13  5.28996E+03  0.00000E+00  1.0E-05
  9.000E-02  6.16850E-07  1.40209E-13  5.00696E+03  0.00000E+00  1.0E-05
  9.250E-02  6.51596E-07  1.32827E-13  4.74333E+03  0.00000E+00  1.0E-05
  9.500E-02  6.87293E-07  1.25935E-13  4.49724E+03  0.00000E+00  1.0E-05
  9.750E-02  7.23942E-07  1.19479E-13  4.26669E+03  0.00000E+00  1.0E-05
  1.000E-01  7.61543E-07  1.13452E-13  4.05146E+03  0.00000E+00  1.0E-05
  1.250E-01  1.18991E-06  7.03513E-14  2.51229E+03  0.00000E+00  1.0E-05
  1.500E-01  1.71347E-06  4.55668E-14  1.62722E+03  0.00000E+00  1.0E-05
  1.750E-01  2.33223E-06  3.10709E-14  1.10956E+03  0.00000E+00  1.0E-05
  2.000E-01  3.04617E-06  2.18096E-14  7.78835E+02  0.00000E+00  1.0E-05
  2.250E-01  3.85531E-06  1.55184E-14  5.54172E+02  0.00000E+00  1.0E-05
  2.500E-01  4.75964E-06  1.12579E-14  4.02026E+02  0.00000E+00  1.0E-05
  2.750E-01  5.75916E-06  8.34862E-15  2.98135E+02  0.00000E+00  1.0E-05
  3.000E-01  6.85388E-06  6.31415E-15  2.25482E+02  0.00000E+00  1.0E-05
  3.250E-01  8.04378E-06  4.85963E-15  1.73540E+02  0.00000E+00  1.0E-05
  3.500E-01  9.32888E-06  3.80607E-15  1.35917E+02  0.00000E+00  1.0E-05
  3.750E-01  1.07092E-05  3.03299E-15  1.08310E+02  0.00000E+00  1.0E-05
  4.000E-01  1.21846E-05  2.45428E-15  8.76438E+01  0.00000E+00  1.0E-05
  4.250E-01  1.37553E-05  2.01271E-15  7.18753E+01  0.00000E+00  1.0E-05
  4.500E-01  1.54212E-05  1.66886E-15  5.95961E+01  0.00000E+00  1.0E-05
  4.750E-01  1.71822E-05  1.39823E-15  4.99318E+01  0.00000E+00  1.0E-05
  5.000E-01  1.90385E-05  1.18179E-15  4.22024E+01  0.00000E+00  1.0E-05
  5.250E-01  2.09899E-05  1.00736E-15  3.59734E+01  0.00000E+00  1.0E-05
  5.500E-01  2.30365E-05  8.63307E-16  3.08292E+01  0.00000E+00  1.0E-05
  5.750E-01  2.51783E-05  7.44204E-16  2.65760E+01  0.00000E+00  1.0E-05
  6.000E-01  2.74153E-05  6.44877E-16  2.30290E+01  0.00000E+00  1.0E-05
  6.250E-01  2.97475E-05  5.61435E-16  2.00492E+01  0.00000E+00  1.0E-05
  6.500E-01  3.21749E-05  4.90566E-16  1.75184E+01  0.00000E+00  1.0E-05
  6.750E-01  3.46974E-05  4.30188E-16  1.53623E+01  0.00000E+00  1.0E-05
  7.000E-01  3.73152E-05  3.78671E-16  1.35226E+01  0.00000E+00  1.0E-05
  7.250E-01  4.00281E-05  3.34539E-16  1.19466E+01  0.00000E+00  1.0E-05
  7.500E-01  4.28362E-05  2.96439E-16  1.05860E+01  0.00000E+00  1.0E-05
  7.750E-01  4.57395E-05  2.63489E-16  9.40937E+00  0.00000E+00  1.0E-05
  8.000E-01  4.87380E-05  2.34933E-16  8.38961E+00  0.00000E+00  1.0E-05
  8.250E-01  5.18317E-05  2.10084E-16  7.50225E+00  0.00000E+00  1.0E-05
  8.500E-01  5.50205E-05  1.88351E-16  6.72615E+00  0.00000E+00  1.0E-05
  8.750E-01  5.83045E-05  1.69289E-16  6.04540E+00  0.00000E+00  1.0E-05
  9.000E-01  6.16838E-05  1.52560E-16  5.44800E+00  0.00000E+00  1.0E-05
  9.250E-01  6.51582E-05  1.37835E-16  4.92219E+00  0.00000E+00  1.0E-05
  9.500E-01  6.87277E-05  1.24831E-16  4.45781E+00  0.00000E+00  1.0E-05
  9.750E-01  7.23925E-05  1.13308E-16  4.04630E+00  0.00000E+00  1.0E-05
  1.000E+00  7.61524E-05  1.03090E-16  3.68143E+00  0.00000E+00  4.2E-06
  1.100E+00  9.21439E-05  7.21622E-17  2.57696E+00  0.00000E+00  3.1E-06
  1.200E+00  1.09658E-04  5.20773E-17  1.85971E+00  0.00000E+00  1.7E-06
  1.300E+00  1.28695E-04  3.85643E-17  1.37716E+00  0.00000E+00  3.2E-07
  1.400E+00  1.49255E-04  2.91792E-17  1.04201E+00  0.00000E+00  7.3E-07
  1.500E+00  1.71338E-04  2.25113E-17  8.03893E-01  0.00000E+00  1.2E-06
  1.600E+00  1.94942E-04  1.76554E-17  6.30484E-01  0.00000E+00  1.3E-06
  1.700E+00  2.20070E-04  1.40435E-17  5.01501E-01  0.00000E+00  1.0E-06
  1.800E+00  2.46720E-04  1.13066E-17  4.03767E-01  0.00000E+00  5.6E-07
  1.900E+00  2.74892E-04  9.20623E-18  3.28761E-01  0.00000E+00  1.0E-07
  2.000E+00  3.04586E-04  7.57204E-18  2.70402E-01  0.00000E+00  3.4E-07
  2.100E+00  3.35803E-04  6.28456E-18  2.24426E-01  0.00000E+00  5.6E-07
  2.200E+00  3.68542E-04  5.25685E-18  1.87725E-01  0.00000E+00  5.9E-07
  2.300E+00  4.02802E-04  4.43082E-18  1.58227E-01  0.00000E+00  4.7E-07
  2.400E+00  4.38585E-04  3.76070E-18  1.34297E-01  0.00000E+00  2.5E-07
  2.500E+00  4.75889E-04  3.21249E-18  1.14720E-01  0.00000E+00  1.0E-07
  2.600E+00  5.14715E-04  2.75989E-18  9.85575E-02  0.00000E+00  2.0E-07
  2.700E+00  5.55063E-04  2.38422E-18  8.51421E-02  0.00000E+00  3.1E-07
  2.800E+00  5.96931E-04  2.07036E-18  7.39339E-02  0.00000E+00  3.2E-07
  2.900E+00  6.40321E-04  1.80648E-18  6.45108E-02  0.00000E+00  2.5E-07
  3.000E+00  6.85233E-04  1.58323E-18  5.65381E-02  0.00000E+00  1.3E-07
  3.100E+00  7.31665E-04  1.39341E-18  4.97595E-02  0.00000E+00  1.0E-07
  3.200E+00  7.79618E-04  1.23126E-18  4.39690E-02  0.00000E+00  1.3E-07
  3.300E+00  8.29092E-04  1.09206E-18  3.89982E-02  0.00000E+00  1.9E-07
  3.400E+00  8.80086E-04  9.72005E-19  3.47109E-02  0.00000E+00  2.0E-07
  3.500E+00  9.32601E-04  8.68011E-19  3.09973E-02  0.00000E+00  1.5E-07
  3.600E+00  9.86636E-04  7.77606E-19  2.77688E-02  0.00000E+00  1.0E-07
  3.700E+00  1.04219E-03  6.98711E-19  2.49514E-02  0.00000E+00  1.0E-07
  3.800E+00  1.09927E-03  6.29599E-19  2.24834E-02  0.00000E+00  1.0E-07
  3.900E+00  1.15786E-03  5.68837E-19  2.03135E-02  0.00000E+00  1.3E-07
  4.000E+00  1.21797E-03  5.15263E-19  1.84004E-02  0.00000E+00  1.3E-07
  4.100E+00  1.27961E-03  4.67878E-19  1.67082E-02  0.00000E+00  1.0E-07
  4.200E+00  1.34276E-03  4.25840E-19  1.52070E-02  0.00000E+00  1.0E-07
  4.300E+00  1.40743E-03  3.88429E-19  1.38710E-02  0.00000E+00  1.0E-07
  4.400E+00  1.47362E-03  3.55057E-19  1.26793E-02  0.00000E+00  1.0E-07
  4.500E+00  1.54133E-03  3.25212E-19  1.16135E-02  0.00000E+00  1.0E-07
  4.600E+00  1.61056E-03  2.98453E-19  1.06580E-02  0.00000E+00  1.0E-07
  4.700E+00  1.68131E-03  2.74399E-19  9.79898E-03  0.00000E+00  1.0E-07
  4.800E+00  1.75357E-03  2.52732E-19  9.02524E-03  0.00000E+00  1.0E-07
  4.900E+00  1.82735E-03  2.33174E-19  8.32680E-03  0.00000E+00  1.0E-07
  5.000E+00  1.90265E-03  2.15482E-19  7.69501E-03  0.00000E+00  1.0E-07
  5.100E+00  1.97947E-03  1.99443E-19  7.12225E-03  0.00000E+00  1.0E-07
  5.200E+00  2.05780E-03  1.84876E-19  6.60205E-03  0.00000E+00  1.0E-07
  5.300E+00  2.13765E-03  1.71623E-19  6.12877E-03  0.00000E+00  1.0E-07
  5.400E+00  2.21902E-03  1.59543E-19  5.69739E-03  0.00000E+00  1.0E-07
  5.500E+00  2.30190E-03  1.48512E-19  5.30348E-03  0.00000E+00  1.0E-07
  5.600E+00  2.38630E-03  1.38423E-19  4.94318E-03  0.00000E+00  1.0E-07
  5.700E+00  2.47222E-03  1.29181E-19  4.61315E-03  0.00000E+00  1.0E-07
  5.800E+00  2.55965E-03  1.20703E-19  4.31038E-03  0.00000E+00  1.0E-07
  5.900E+00  2.64859E-03  1.12912E-19  4.03217E-03  0.00000E+00  1.0E-07
  6.000E+00  2.73905E-03  1.05743E-19  3.77615E-03  0.00000E+00  1.0E-07
  6.100E+00  2.83103E-03  9.91371E-20  3.54025E-03  0.00000E+00  1.0E-07
  6.200E+00  2.92452E-03  9.30423E-20  3.32260E-03  0.00000E+00  1.0E-07
  6.300E+00  3.01952E-03  8.74116E-20  3.12153E-03  0.00000E+00  1.0E-07
  6.400E+00  3.11604E-03  8.22022E-20  2.93549E-03  0.00000E+00  1.0E-07
  6.500E+00  3.21407E-03  7.73776E-20  2.76320E-03  0.00000E+00  1.0E-07
  6.600E+00  3.31362E-03  7.29040E-20  2.60345E-03  0.00000E+00  1.0E-07
  6.700E+00  3.41468E-03  6.87512E-20  2.45515E-03  0.00000E+00  1.0E-07
  6.800E+00  3.51725E-03  6.48912E-20  2.31731E-03  0.00000E+00  1.0E-07
  6.900E+00  3.62133E-03  6.13001E-20  2.18907E-03  0.00000E+00  1.0E-07
  7.000E+00  3.72692E-03  5.79556E-20  2.06963E-03  0.00000E+00  1.0E-07
  7.100E+00  3.83403E-03  5.48376E-20  1.95829E-03  0.00000E+00  1.0E-07
  7.200E+00  3.94265E-03  5.19276E-20  1.85437E-03  0.00000E+00  1.0E-07
  7.300E+00  4.05278E-03  4.92092E-20  1.75729E-03  0.00000E+00  1.0E-07
  7.400E+00  4.16442E-03  4.66676E-20  1.66653E-03  0.00000E+00  1.0E-07
  7.500E+00  4.27757E-03  4.42891E-20  1.58159E-03  0.00000E+00  1.0E-07
  7.600E+00  4.39223E-03  4.20612E-20  1.50203E-03  0.00000E+00  1.0E-07
  7.700E+00  4.50840E-03  3.99724E-20  1.42744E-03  0.00000E+00  1.0E-07
  7.800E+00  4.62608E-03  3.80125E-20  1.35745E-03  0.00000E+00  1.0E-07
  7.900E+00  4.74527E-03  3.61723E-20  1.29173E-03  0.00000E+00  1.0E-07
  8.000E+00  4.86597E-03  3.44427E-20  1.22997E-03  0.00000E+00  1.0E-07
  8.100E+00  4.98817E-03  3.28159E-20  1.17188E-03  0.00000E+00  1.0E-07
  8.200E+00  5.11188E-03  3.12847E-20  1.11720E-03  0.00000E+00  1.0E-07
  8.300E+00  5.23711E-03  2.98425E-20  1.06570E-03  0.00000E+00  1.0E-07
  8.400E+00  5.36383E-03  2.84831E-20  1.01715E-03  0.00000E+00  1.0E-07
  8.500E+00  5.49207E-03  2.72006E-20  9.71350E-04  0.00000E+00  1.0E-07
  8.600E+00  5.62181E-03  2.59900E-20  9.28120E-04  0.00000E+00  1.0E-07
  8.700E+00  5.75306E-03  2.48466E-20  8.87288E-04  0.00000E+00  1.0E-07
  8.800E+00  5.88581E-03  2.37659E-20  8.48695E-04  0.00000E+00  1.0E-07
  8.900E+00  6.02007E-03  2.27436E-20  8.12188E-04  0.00000E+00  1.0E-07
  9.000E+00  6.15583E-03  2.17761E-20  7.77640E-04  0.00000E+00  1.0E-07
  9.100E+00  6.29310E-03  2.08600E-20  7.44925E-04  0.00000E+00  1.0E-07
  9.200E+00  6.43187E-03  1.99920E-20  7.13926E-04  0.00000E+00  1.0E-07
  9.300E+00  6.57214E-03  1.91689E-20  6.84534E-04  0.00000E+00  1.0E-07
  9.400E+00  6.71392E-03  1.83881E-20  6.56651E-04  0.00000E+00  1.0E-07
  9.500E+00  6.85720E-03  1.76470E-20  6.30186E-04  0.00000E+00  1.0E-07
  9.600E+00  7.00198E-03  1.69432E-20  6.05051E-04  0.00000E+00  1.0E-07
  9.700E+00  7.14827E-03  1.62743E-20  5.81167E-04  0.00000E+00  1.0E-07
  9.800E+00  7.29605E-03  1.56385E-20  5.58459E-04  0.00000E+00  1.0E-07
  9.900E+00  7.44534E-03  1.50336E-20  5.36860E-04  0.00000E+00  1.0E-07
  1.000E+01  7.59612E-03  1.44580E-20  5.16303E-04  0.00000E+00  1.0E-07
  1.025E+01  7.97965E-03  1.31359E-20  4.69092E-04  0.00000E+00  1.0E-07
  1.050E+01  8.37255E-03  1.19628E-20  4.27198E-04  0.00000E+00  1.0E-07
  1.075E+01  8.77480E-03  1.09188E-20  3.89918E-04  0.00000E+00  1.0E-07
  1.100E+01  9.18641E-03  9.98728E-21  3.56652E-04  0.00000E+00  1.0E-07
  1.125E+01  9.60736E-03  9.15387E-21  3.26891E-04  0.00000E+00  1.0E-07
  1.150E+01  1.00376E-02  8.40641E-21  3.00198E-04  0.00000E+00  1.0E-07
  1.175E+01  1.04773E-02  7.73443E-21  2.76201E-04  0.00000E+00  1.0E-07
  1.200E+01  1.09262E-02  7.12891E-21  2.54578E-04  0.00000E+00  1.0E-07
  1.225E+01  1.13844E-02  6.58209E-21  2.35051E-04  0.00000E+00  1.0E-07
  1.250E+01  1.18520E-02  6.08724E-21  2.17379E-04  0.00000E+00  1.0E-07
  1.275E+01  1.23288E-02  5.63851E-21  2.01355E-04  0.00000E+00  1.0E-07
  1.300E+01  1.28150E-02  5.23082E-21  1.86796E-04  0.00000E+00  1.0E-07
  1.325E+01  1.33104E-02  4.85970E-21  1.73543E-04  0.00000E+00  1.0E-07
  1.350E+01  1.38150E-02  4.52130E-21  1.61459E-04  0.00000E+00  1.0E-07
  1.375E+01  1.43290E-02  4.21218E-21  1.50420E-04  0.00000E+00  1.0E-07
  1.400E+01  1.48521E-02  3.92933E-21  1.40319E-04  0.00000E+00  1.0E-07
  1.425E+01  1.53845E-02  3.67011E-21  1.31062E-04  0.00000E+00  1.0E-07
  1.450E+01  1.59262E-02  3.43219E-21  1.22566E-04  0.00000E+00  1.0E-07
  1.475E+01  1.64770E-02  3.21346E-21  1.14755E-04  0.00000E+00  1.0E-07
  1.500E+01  1.70371E-02  3.01210E-21  1.07564E-04  0.00000E+00  1.0E-07
  1.525E+01  1.76063E-02  2.82647E-21  1.00935E-04  0.00000E+00  1.0E-07
