 #
 # Subroutine ELSEPA. Elastic scattering of electrons and positrons
 #                    by neutral atoms and positive ions
 #
 # Projectile: electron
 # Kinetic energy = 3.70000E+06 eV = 1.35973E+05 a.u.
 #
 # WARNING: High-energy factorization with free-atom DF screening.
 #          Absorption, polarization and exchange corrections are
 #          switched off.
 #          Phase shifts are calculated for the bare nucleus.
 #          Scattering amplitudes are not evaluated.
 #
 # Element: Sr,  Z =  38,  atomic weight = 8.76200E+01 g/mol
 #
 # Nuclear model: Fermi distribution
 #                Average radius = 4.75246E-13 cm
 #                Skin thickness = 5.46000E-14 cm
 #
 # Number of electrons = 38
 #
 # Total elastic cross section = 3.81881E-18 cm**2 = 1.36372E-01 a0**2
 # 1st transport cross section = 1.25435E-22 cm**2 = 4.47937E-06 a0**2
 # 2nd transport cross section = 3.52016E-22 cm**2 = 1.25707E-05 a0**2
 #
 #
 # Differential cross section:                       MU=(1-COS(THETA))/2
 #
 #  THETA        MU          DCS          DCS        Sherman      error
 #  (deg)                 (cm**2/sr)   (a0**2/sr)    function
 #----------------------------------------------------------------------
  0.000E+00  0.00000E+00  1.14951E-12  4.10498E+04  0.00000E+00  1.0E-05
  1.000E-04  7.61557E-13  1.14950E-12  4.10494E+04  0.00000E+00  1.0E-05
  1.250E-04  1.18994E-12  1.14949E-12  4.10492E+04  0.00000E+00  1.0E-05
  1.500E-04  1.71346E-12  1.14949E-12  4.10489E+04  0.00000E+00  1.0E-05
  1.750E-04  2.33225E-12  1.14948E-12  4.10486E+04  0.00000E+00  1.0E-05
  2.000E-04  3.04617E-12  1.14947E-12  4.10482E+04  0.00000E+00  1.0E-05
  2.250E-04  3.85530E-12  1.14945E-12  4.10478E+04  0.00000E+00  1.0E-05
  2.500E-04  4.75964E-12  1.14944E-12  4.10473E+04  0.00000E+00  1.0E-05
  2.750E-04  5.75917E-12  1.14943E-12  4.10467E+04  0.00000E+00  1.0E-05
  3.000E-04  6.85391E-12  1.14941E-12  4.10462E+04  0.00000E+00  1.0E-05
  3.250E-04  8.04379E-12  1.14939E-12  4.10455E+04  0.00000E+00  1.0E-05
  3.500E-04  9.32893E-12  1.14937E-12  4.10448E+04  0.00000E+00  1.0E-05
  3.750E-04  1.07092E-11  1.14935E-12  4.10441E+04  0.00000E+00  1.0E-05
  4.000E-04  1.21847E-11  1.14933E-12  4.10433E+04  0.00000E+00  1.0E-05
  4.250E-04  1.37554E-11  1.14931E-12  4.10425E+04  0.00000E+00  1.0E-05
  4.500E-04  1.54213E-11  1.14928E-12  4.10416E+04  0.00000E+00  1.0E-05
  4.750E-04  1.71823E-11  1.14925E-12  4.10406E+04  0.00000E+00  1.0E-05
  5.000E-04  1.90386E-11  1.14923E-12  4.10396E+04  0.00000E+00  1.0E-05
  5.250E-04  2.09900E-11  1.14920E-12  4.10386E+04  0.00000E+00  1.0E-05
  5.500E-04  2.30367E-11  1.14917E-12  4.10375E+04  0.00000E+00  1.0E-05
  5.750E-04  2.51785E-11  1.14913E-12  4.10363E+04  0.00000E+00  1.0E-05
  6.000E-04  2.74156E-11  1.14910E-12  4.10351E+04  0.00000E+00  1.0E-05
  6.250E-04  2.97478E-11  1.14907E-12  4.10339E+04  0.00000E+00  1.0E-05
  6.500E-04  3.21752E-11  1.14903E-12  4.10326E+04  0.00000E+00  1.0E-05
  6.750E-04  3.46979E-11  1.14899E-12  4.10312E+04  0.00000E+00  1.0E-05
  7.000E-04  3.73157E-11  1.14895E-12  4.10298E+04  0.00000E+00  1.0E-05
  7.250E-04  4.00286E-11  1.14891E-12  4.10283E+04  0.00000E+00  1.0E-05
  7.500E-04  4.28368E-11  1.14887E-12  4.10268E+04  0.00000E+00  1.0E-05
  7.750E-04  4.57402E-11  1.14882E-12  4.10253E+04  0.00000E+00  1.0E-05
  8.000E-04  4.87388E-11  1.14878E-12  4.10237E+04  0.00000E+00  1.0E-05
  8.250E-04  5.18325E-11  1.14873E-12  4.10220E+04  0.00000E+00  1.0E-05
  8.500E-04  5.50215E-11  1.14868E-12  4.10203E+04  0.00000E+00  1.0E-05
  8.750E-04  5.83057E-11  1.14864E-12  4.10185E+04  0.00000E+00  1.0E-05
  9.000E-04  6.16850E-11  1.14858E-12  4.10167E+04  0.00000E+00  1.0E-05
  9.250E-04  6.51595E-11  1.14853E-12  4.10148E+04  0.00000E+00  1.0E-05
  9.500E-04  6.87293E-11  1.14848E-12  4.10129E+04  0.00000E+00  1.0E-05
  9.750E-04  7.23943E-11  1.14842E-12  4.10110E+04  0.00000E+00  1.0E-05
  1.000E-03  7.61544E-11  1.14837E-12  4.10089E+04  0.00000E+00  1.0E-05
  1.250E-03  1.18991E-10  1.14772E-12  4.09859E+04  0.00000E+00  1.0E-05
  1.500E-03  1.71347E-10  1.14694E-12  4.09579E+04  0.00000E+00  1.0E-05
  1.750E-03  2.33223E-10  1.14601E-12  4.09247E+04  0.00000E+00  1.0E-05
  2.000E-03  3.04617E-10  1.14494E-12  4.08865E+04  0.00000E+00  1.0E-05
  2.250E-03  3.85531E-10  1.14373E-12  4.08433E+04  0.00000E+00  1.0E-05
  2.500E-03  4.75965E-10  1.14238E-12  4.07951E+04  0.00000E+00  1.0E-05
  2.750E-03  5.75917E-10  1.14089E-12  4.07419E+04  0.00000E+00  1.0E-05
  3.000E-03  6.85389E-10  1.13926E-12  4.06837E+04  0.00000E+00  1.0E-05
  3.250E-03  8.04380E-10  1.13749E-12  4.06206E+04  0.00000E+00  1.0E-05
  3.500E-03  9.32891E-10  1.13559E-12  4.05527E+04  0.00000E+00  1.0E-05
  3.750E-03  1.07092E-09  1.13355E-12  4.04799E+04  0.00000E+00  1.0E-05
  4.000E-03  1.21847E-09  1.13138E-12  4.04023E+04  0.00000E+00  1.0E-05
  4.250E-03  1.37554E-09  1.12907E-12  4.03199E+04  0.00000E+00  1.0E-05
  4.500E-03  1.54213E-09  1.12663E-12  4.02329E+04  0.00000E+00  1.0E-05
  4.750E-03  1.71823E-09  1.12407E-12  4.01411E+04  0.00000E+00  1.0E-05
  5.000E-03  1.90386E-09  1.12137E-12  4.00448E+04  0.00000E+00  1.0E-05
  5.250E-03  2.09900E-09  1.11854E-12  3.99439E+04  0.00000E+00  1.0E-05
  5.500E-03  2.30367E-09  1.11559E-12  3.98385E+04  0.00000E+00  1.0E-05
  5.750E-03  2.51785E-09  1.11252E-12  3.97286E+04  0.00000E+00  1.0E-05
  6.000E-03  2.74156E-09  1.10932E-12  3.96144E+04  0.00000E+00  1.0E-05
  6.250E-03  2.97478E-09  1.10600E-12  3.94958E+04  0.00000E+00  1.0E-05
  6.500E-03  3.21752E-09  1.10256E-12  3.93730E+04  0.00000E+00  1.0E-05
  6.750E-03  3.46978E-09  1.09900E-12  3.92460E+04  0.00000E+00  1.0E-05
  7.000E-03  3.73156E-09  1.09533E-12  3.91148E+04  0.00000E+00  1.0E-05
  7.250E-03  4.00286E-09  1.09154E-12  3.89796E+04  0.00000E+00  1.0E-05
  7.500E-03  4.28368E-09  1.08764E-12  3.88403E+04  0.00000E+00  1.0E-05
  7.750E-03  4.57402E-09  1.08363E-12  3.86972E+04  0.00000E+00  1.0E-05
  8.000E-03  4.87388E-09  1.07952E-12  3.85503E+04  0.00000E+00  1.0E-05
  8.250E-03  5.18326E-09  1.07530E-12  3.83995E+04  0.00000E+00  1.0E-05
  8.500E-03  5.50215E-09  1.07097E-12  3.82450E+04  0.00000E+00  1.0E-05
  8.750E-03  5.83057E-09  1.06655E-12  3.80870E+04  0.00000E+00  1.0E-05
  9.000E-03  6.16850E-09  1.06202E-12  3.79254E+04  0.00000E+00  1.0E-05
  9.250E-03  6.51596E-09  1.05740E-12  3.77604E+04  0.00000E+00  1.0E-05
  9.500E-03  6.87293E-09  1.05268E-12  3.75920E+04  0.00000E+00  1.0E-05
  9.750E-03  7.23942E-09  1.04787E-12  3.74203E+04  0.00000E+00  1.0E-05
  1.000E-02  7.61544E-09  1.04298E-12  3.72454E+04  0.00000E+00  1.0E-05
  1.250E-02  1.18991E-08  9.89593E-13  3.53390E+04  0.00000E+00  1.0E-05
  1.500E-02  1.71347E-08  9.30162E-13  3.32167E+04  0.00000E+00  1.0E-05
  1.750E-02  2.33223E-08  8.66666E-13  3.09492E+04  0.00000E+00  1.0E-05
  2.000E-02  3.04617E-08  8.01394E-13  2.86183E+04  0.00000E+00  1.0E-05
  2.250E-02  3.85531E-08  7.36681E-13  2.63074E+04  0.00000E+00  1.0E-05
  2.500E-02  4.75965E-08  6.74013E-13  2.40694E+04  0.00000E+00  1.0E-05
  2.750E-02  5.75917E-08  6.14266E-13  2.19358E+04  0.00000E+00  1.0E-05
  3.000E-02  6.85389E-08  5.58227E-13  1.99347E+04  0.00000E+00  1.0E-05
  3.250E-02  8.04380E-08  5.06653E-13  1.80929E+04  0.00000E+00  1.0E-05
  3.500E-02  9.32891E-08  4.59817E-13  1.64203E+04  0.00000E+00  1.0E-05
  3.750E-02  1.07092E-07  4.17312E-13  1.49025E+04  0.00000E+00  1.0E-05
  4.000E-02  1.21847E-07  3.79007E-13  1.35346E+04  0.00000E+00  1.0E-05
  4.250E-02  1.37554E-07  3.44765E-13  1.23118E+04  0.00000E+00  1.0E-05
  4.500E-02  1.54213E-07  3.14455E-13  1.12294E+04  0.00000E+00  1.0E-05
  4.750E-02  1.71823E-07  2.87392E-13  1.02629E+04  0.00000E+00  1.0E-05
  5.000E-02  1.90386E-07  2.63266E-13  9.40141E+03  0.00000E+00  1.0E-05
  5.250E-02  2.09900E-07  2.41779E-13  8.63408E+03  0.00000E+00  1.0E-05
  5.500E-02  2.30367E-07  2.22785E-13  7.95580E+03  0.00000E+00  1.0E-05
  5.750E-02  2.51785E-07  2.05785E-13  7.34871E+03  0.00000E+00  1.0E-05
  6.000E-02  2.74156E-07  1.90551E-13  6.80469E+03  0.00000E+00  1.0E-05
  6.250E-02  2.97478E-07  1.76876E-13  6.31636E+03  0.00000E+00  1.0E-05
  6.500E-02  3.21752E-07  1.64612E-13  5.87839E+03  0.00000E+00  1.0E-05
  6.750E-02  3.46978E-07  1.53525E-13  5.48249E+03  0.00000E+00  1.0E-05
  7.000E-02  3.73156E-07  1.43471E-13  5.12344E+03  0.00000E+00  1.0E-05
  7.250E-02  4.00286E-07  1.34330E-13  4.79701E+03  0.00000E+00  1.0E-05
  7.500E-02  4.28368E-07  1.25994E-13  4.49933E+03  0.00000E+00  1.0E-05
  7.750E-02  4.57402E-07  1.18358E-13  4.22664E+03  0.00000E+00  1.0E-05
  8.000E-02  4.87388E-07  1.11345E-13  3.97620E+03  0.00000E+00  1.0E-05
  8.250E-02  5.18325E-07  1.04890E-13  3.74568E+03  0.00000E+00  1.0E-05
  8.500E-02  5.50215E-07  9.89239E-14  3.53264E+03  0.00000E+00  1.0E-05
  8.750E-02  5.83057E-07  9.33893E-14  3.33499E+03  0.00000E+00  1.0E-05
  9.000E-02  6.16850E-07  8.82548E-14  3.15164E+03  0.00000E+00  1.0E-05
  9.250E-02  6.51596E-07  8.34829E-14  2.98123E+03  0.00000E+00  1.0E-05
  9.500E-02  6.87293E-07  7.90344E-14  2.82237E+03  0.00000E+00  1.0E-05
  9.750E-02  7.23942E-07  7.48658E-14  2.67351E+03  0.00000E+00  1.0E-05
  1.000E-01  7.61543E-07  7.09713E-14  2.53443E+03  0.00000E+00  1.0E-05
  1.250E-01  1.18991E-06  4.29014E-14  1.53204E+03  0.00000E+00  1.0E-05
  1.500E-01  1.71347E-06  2.68829E-14  9.60005E+02  0.00000E+00  1.0E-05
  1.750E-01  2.33223E-06  1.78963E-14  6.39087E+02  0.00000E+00  1.0E-05
  2.000E-01  3.04617E-06  1.24360E-14  4.44099E+02  0.00000E+00  1.0E-05
  2.250E-01  3.85531E-06  8.94904E-15  3.19576E+02  0.00000E+00  1.0E-05
  2.500E-01  4.75964E-06  6.64680E-15  2.37362E+02  0.00000E+00  1.0E-05
  2.750E-01  5.75916E-06  5.07064E-15  1.81076E+02  0.00000E+00  1.0E-05
  3.000E-01  6.85388E-06  3.94943E-15  1.41037E+02  0.00000E+00  1.0E-05
  3.250E-01  8.04378E-06  3.11855E-15  1.11365E+02  0.00000E+00  1.0E-05
  3.500E-01  9.32888E-06  2.48676E-15  8.88037E+01  0.00000E+00  1.0E-05
  3.750E-01  1.07092E-05  2.00477E-15  7.15915E+01  0.00000E+00  1.0E-05
  4.000E-01  1.21846E-05  1.63096E-15  5.82427E+01  0.00000E+00  1.0E-05
  4.250E-01  1.37553E-05  1.33626E-15  4.77188E+01  0.00000E+00  1.0E-05
  4.500E-01  1.54212E-05  1.10053E-15  3.93006E+01  0.00000E+00  1.0E-05
  4.750E-01  1.71822E-05  9.13225E-16  3.26118E+01  0.00000E+00  1.0E-05
  5.000E-01  1.90385E-05  7.62923E-16  2.72445E+01  0.00000E+00  1.0E-05
  5.250E-01  2.09899E-05  6.41677E-16  2.29147E+01  0.00000E+00  1.0E-05
  5.500E-01  2.30365E-05  5.42449E-16  1.93712E+01  0.00000E+00  1.0E-05
  5.750E-01  2.51783E-05  4.61492E-16  1.64802E+01  0.00000E+00  1.0E-05
  6.000E-01  2.74153E-05  3.94961E-16  1.41043E+01  0.00000E+00  1.0E-05
  6.250E-01  2.97475E-05  3.39943E-16  1.21396E+01  0.00000E+00  1.0E-05
  6.500E-01  3.21749E-05  2.94123E-16  1.05033E+01  0.00000E+00  1.0E-05
  6.750E-01  3.46974E-05  2.55788E-16  9.13437E+00  0.00000E+00  1.0E-05
  7.000E-01  3.73152E-05  2.23575E-16  7.98400E+00  0.00000E+00  1.0E-05
  7.250E-01  4.00281E-05  1.96362E-16  7.01222E+00  0.00000E+00  1.0E-05
  7.500E-01  4.28362E-05  1.73229E-16  6.18613E+00  0.00000E+00  1.0E-05
  7.750E-01  4.57395E-05  1.53468E-16  5.48044E+00  0.00000E+00  1.0E-05
  8.000E-01  4.87380E-05  1.36504E-16  4.87464E+00  0.00000E+00  1.0E-05
  8.250E-01  5.18317E-05  1.21867E-16  4.35197E+00  0.00000E+00  1.0E-05
  8.500E-01  5.50205E-05  1.09172E-16  3.89861E+00  0.00000E+00  1.0E-05
  8.750E-01  5.83045E-05  9.81091E-17  3.50354E+00  0.00000E+00  1.0E-05
  9.000E-01  6.16838E-05  8.84381E-17  3.15818E+00  0.00000E+00  1.0E-05
  9.250E-01  6.51582E-05  7.99512E-17  2.85511E+00  0.00000E+00  1.0E-05
  9.500E-01  6.87277E-05  7.24730E-17  2.58806E+00  0.00000E+00  1.0E-05
  9.750E-01  7.23925E-05  6.58545E-17  2.35171E+00  0.00000E+00  1.0E-05
  1.000E+00  7.61524E-05  5.99857E-17  2.14213E+00  0.00000E+00  4.2E-06
  1.100E+00  9.21439E-05  4.21826E-17  1.50637E+00  0.00000E+00  3.2E-06
  1.200E+00  1.09658E-04  3.05350E-17  1.09042E+00  0.00000E+00  1.8E-06
  1.300E+00  1.28695E-04  2.26332E-17  8.08246E-01  0.00000E+00  4.1E-07
  1.400E+00  1.49255E-04  1.71034E-17  6.10775E-01  0.00000E+00  6.4E-07
  1.500E+00  1.71338E-04  1.31634E-17  4.70074E-01  0.00000E+00  1.2E-06
  1.600E+00  1.94942E-04  1.02894E-17  3.67443E-01  0.00000E+00  1.3E-06
  1.700E+00  2.20070E-04  8.15235E-18  2.91126E-01  0.00000E+00  1.1E-06
  1.800E+00  2.46720E-04  6.53690E-18  2.33437E-01  0.00000E+00  6.2E-07
  1.900E+00  2.74892E-04  5.30150E-18  1.89320E-01  0.00000E+00  1.3E-07
  2.000E+00  3.04586E-04  4.34401E-18  1.55127E-01  0.00000E+00  2.9E-07
  2.100E+00  3.35803E-04  3.59283E-18  1.28302E-01  0.00000E+00  5.3E-07
  2.200E+00  3.68542E-04  2.99643E-18  1.07004E-01  0.00000E+00  5.9E-07
  2.300E+00  4.02802E-04  2.51898E-18  8.99545E-02  0.00000E+00  4.9E-07
  2.400E+00  4.38585E-04  2.13311E-18  7.61748E-02  0.00000E+00  2.9E-07
  2.500E+00  4.75889E-04  1.81855E-18  6.49416E-02  0.00000E+00  1.0E-07
  2.600E+00  5.14715E-04  1.55988E-18  5.57044E-02  0.00000E+00  1.6E-07
  2.700E+00  5.55063E-04  1.34577E-18  4.80583E-02  0.00000E+00  2.9E-07
  2.800E+00  5.96931E-04  1.16730E-18  4.16851E-02  0.00000E+00  3.3E-07
  2.900E+00  6.40321E-04  1.01758E-18  3.63383E-02  0.00000E+00  2.7E-07
  3.000E+00  6.85233E-04  8.91165E-19  3.18241E-02  0.00000E+00  1.6E-07
  3.100E+00  7.31665E-04  7.83856E-19  2.79920E-02  0.00000E+00  1.0E-07
  3.200E+00  7.79618E-04  6.92296E-19  2.47223E-02  0.00000E+00  1.0E-07
  3.300E+00  8.29092E-04  6.13779E-19  2.19184E-02  0.00000E+00  1.8E-07
  3.400E+00  8.80086E-04  5.46123E-19  1.95024E-02  0.00000E+00  2.0E-07
  3.500E+00  9.32601E-04  4.87564E-19  1.74112E-02  0.00000E+00  1.7E-07
  3.600E+00  9.86636E-04  4.36681E-19  1.55942E-02  0.00000E+00  1.0E-07
  3.700E+00  1.04219E-03  3.92296E-19  1.40091E-02  0.00000E+00  1.0E-07
  3.800E+00  1.09927E-03  3.53429E-19  1.26212E-02  0.00000E+00  1.0E-07
  3.900E+00  1.15786E-03  3.19268E-19  1.14012E-02  0.00000E+00  1.2E-07
  4.000E+00  1.21797E-03  2.89153E-19  1.03258E-02  0.00000E+00  1.3E-07
  4.100E+00  1.27961E-03  2.62521E-19  9.37479E-03  0.00000E+00  1.1E-07
  4.200E+00  1.34276E-03  2.38897E-19  8.53115E-03  0.00000E+00  1.0E-07
  4.300E+00  1.40743E-03  2.17874E-19  7.78042E-03  0.00000E+00  1.0E-07
  4.400E+00  1.47362E-03  1.99123E-19  7.11079E-03  0.00000E+00  1.0E-07
  4.500E+00  1.54133E-03  1.82353E-19  6.51194E-03  0.00000E+00  1.0E-07
  4.600E+00  1.61056E-03  1.67319E-19  5.97505E-03  0.00000E+00  1.0E-07
  4.700E+00  1.68131E-03  1.53804E-19  5.49243E-03  0.00000E+00  1.0E-07
  4.800E+00  1.75357E-03  1.41630E-19  5.05772E-03  0.00000E+00  1.0E-07
  4.900E+00  1.82735E-03  1.30642E-19  4.66532E-03  0.00000E+00  1.0E-07
  5.000E+00  1.90265E-03  1.20703E-19  4.31038E-03  0.00000E+00  1.0E-07
  5.100E+00  1.97947E-03  1.11693E-19  3.98862E-03  0.00000E+00  1.0E-07
  5.200E+00  2.05780E-03  1.03510E-19  3.69639E-03  0.00000E+00  1.0E-07
  5.300E+00  2.13765E-03  9.60649E-20  3.43054E-03  0.00000E+00  1.0E-07
  5.400E+00  2.21902E-03  8.92799E-20  3.18824E-03  0.00000E+00  1.0E-07
  5.500E+00  2.30190E-03  8.30846E-20  2.96700E-03  0.00000E+00  1.0E-07
  5.600E+00  2.38630E-03  7.74186E-20  2.76467E-03  0.00000E+00  1.0E-07
  5.700E+00  2.47222E-03  7.22290E-20  2.57935E-03  0.00000E+00  1.0E-07
  5.800E+00  2.55965E-03  6.74686E-20  2.40935E-03  0.00000E+00  1.0E-07
  5.900E+00  2.64859E-03  6.30950E-20  2.25316E-03  0.00000E+00  1.0E-07
  6.000E+00  2.73905E-03  5.90706E-20  2.10945E-03  0.00000E+00  1.0E-07
  6.100E+00  2.83103E-03  5.53632E-20  1.97705E-03  0.00000E+00  1.0E-07
  6.200E+00  2.92452E-03  5.19431E-20  1.85492E-03  0.00000E+00  1.0E-07
  6.300E+00  3.01952E-03  4.87839E-20  1.74211E-03  0.00000E+00  1.0E-07
  6.400E+00  3.11604E-03  4.58616E-20  1.63775E-03  0.00000E+00  1.0E-07
  6.500E+00  3.21407E-03  4.31557E-20  1.54112E-03  0.00000E+00  1.0E-07
  6.600E+00  3.31362E-03  4.06472E-20  1.45154E-03  0.00000E+00  1.0E-07
  6.700E+00  3.41468E-03  3.83190E-20  1.36840E-03  0.00000E+00  1.0E-07
  6.800E+00  3.51725E-03  3.61554E-20  1.29113E-03  0.00000E+00  1.0E-07
  6.900E+00  3.62133E-03  3.41429E-20  1.21927E-03  0.00000E+00  1.0E-07
  7.000E+00  3.72692E-03  3.22691E-20  1.15235E-03  0.00000E+00  1.0E-07
  7.100E+00  3.83403E-03  3.05225E-20  1.08998E-03  0.00000E+00  1.0E-07
  7.200E+00  3.94265E-03  2.88928E-20  1.03178E-03  0.00000E+00  1.0E-07
  7.300E+00  4.05278E-03  2.73709E-20  9.77431E-04  0.00000E+00  1.0E-07
  7.400E+00  4.16442E-03  2.59482E-20  9.26627E-04  0.00000E+00  1.0E-07
  7.500E+00  4.27757E-03  2.46172E-20  8.79095E-04  0.00000E+00  1.0E-07
  7.600E+00  4.39223E-03  2.33707E-20  8.34582E-04  0.00000E+00  1.0E-07
  7.700E+00  4.50840E-03  2.22023E-20  7.92860E-04  0.00000E+00  1.0E-07
  7.800E+00  4.62608E-03  2.11064E-20  7.53725E-04  0.00000E+00  1.0E-07
  7.900E+00  4.74527E-03  2.00776E-20  7.16985E-04  0.00000E+00  1.0E-07
  8.000E+00  4.86597E-03  1.91110E-20  6.82465E-04  0.00000E+00  1.0E-07
  8.100E+00  4.98817E-03  1.82020E-20  6.50005E-04  0.00000E+00  1.0E-07
  8.200E+00  5.11188E-03  1.73467E-20  6.19461E-04  0.00000E+00  1.0E-07
  8.300E+00  5.23711E-03  1.65413E-20  5.90699E-04  0.00000E+00  1.0E-07
  8.400E+00  5.36383E-03  1.57822E-20  5.63594E-04  0.00000E+00  1.0E-07
  8.500E+00  5.49207E-03  1.50664E-20  5.38032E-04  0.00000E+00  1.0E-07
  8.600E+00  5.62181E-03  1.43909E-20  5.13909E-04  0.00000E+00  1.0E-07
  8.700E+00  5.75306E-03  1.37531E-20  4.91131E-04  0.00000E+00  1.0E-07
  8.800E+00  5.88581E-03  1.31503E-20  4.69606E-04  0.00000E+00  1.0E-07
  8.900E+00  6.02007E-03  1.25804E-20  4.49253E-04  0.00000E+00  1.0E-07
  9.000E+00  6.15583E-03  1.20411E-20  4.29996E-04  0.00000E+00  1.0E-07
  9.100E+00  6.29310E-03  1.15306E-20  4.11764E-04  0.00000E+00  1.0E-07
  9.200E+00  6.43187E-03  1.10470E-20  3.94495E-04  0.00000E+00  1.0E-07
  9.300E+00  6.57214E-03  1.05886E-20  3.78125E-04  0.00000E+00  1.0E-07
  9.400E+00  6.71392E-03  1.01538E-20  3.62600E-04  0.00000E+00  1.0E-07
  9.500E+00  6.85720E-03  9.74128E-21  3.47867E-04  0.00000E+00  1.0E-07
  9.600E+00  7.00198E-03  9.34960E-21  3.33880E-04  0.00000E+00  1.0E-07
  9.700E+00  7.14827E-03  8.97750E-21  3.20592E-04  0.00000E+00  1.0E-07
  9.800E+00  7.29605E-03  8.62382E-21  3.07962E-04  0.00000E+00  1.0E-07
  9.900E+00  7.44534E-03  8.28749E-21  2.95952E-04  0.00000E+00  1.0E-07
  1.000E+01  7.59612E-03  7.96751E-21  2.84525E-04  0.00000E+00  1.0E-07
  1.025E+01  7.97965E-03  7.23290E-21  2.58291E-04  0.00000E+00  1.0E-07
  1.050E+01  8.37255E-03  6.58149E-21  2.35029E-04  0.00000E+00  1.0E-07
  1.075E+01  8.77480E-03  6.00219E-21  2.14342E-04  0.00000E+00  1.0E-07
  1.100E+01  9.18641E-03  5.48561E-21  1.95895E-04  0.00000E+00  1.0E-07
  1.125E+01  9.60736E-03  5.02375E-21  1.79402E-04  0.00000E+00  1.0E-07
  1.150E+01  1.00376E-02  4.60979E-21  1.64619E-04  0.00000E+00  1.0E-07
  1.175E+01  1.04773E-02  4.23786E-21  1.51337E-04  0.00000E+00  1.0E-07
  1.200E+01  1.09262E-02  3.90293E-21  1.39376E-04  0.00000E+00  1.0E-07
  1.225E+01  1.13844E-02  3.60066E-21  1.28582E-04  0.00000E+00  1.0E-07
  1.250E+01  1.18520E-02  3.32729E-21  1.18820E-04  0.00000E+00  1.0E-07
  1.275E+01  1.23288E-02  3.07955E-21  1.09973E-04  0.00000E+00  1.0E-07
  1.300E+01  1.28150E-02  2.85461E-21  1.01940E-04  0.00000E+00  1.0E-07
  1.325E+01  1.33104E-02  2.64997E-21  9.46321E-05  0.00000E+00  1.0E-07
  1.350E+01  1.38150E-02  2.46348E-21  8.79726E-05  0.00000E+00  1.0E-07
  1.375E+01  1.43290E-02  2.29323E-21  8.18928E-05  0.00000E+00  1.0E-07
  1.400E+01  1.48521E-02  2.13755E-21  7.63332E-05  0.00000E+00  1.0E-07
  1.425E+01  1.53845E-02  1.99495E-21  7.12411E-05  0.00000E+00  1.0E-07
  1.450E+01  1.59262E-02  1.86415E-21  6.65699E-05  0.00000E+00  1.0E-07
  1.475E+01  1.64770E-02  1.74397E-21  6.22783E-05  0.00000E+00  1.0E-07
  1.500E+01  1.70371E-02  1.63340E-21  5.83298E-05  0.00000E+00  1.0E-07
  1.525E+01  1.76063E-02  1.53153E-21  5.46918E-05  0.00000E+00  1.0E-07
