 #
 # Subroutine ELSEPA. Elastic scattering of electrons and positrons
 #                    by neutral atoms and positive ions
 #
 # Projectile: electron
 # Kinetic energy = 3.70000E+06 eV = 1.35973E+05 a.u.
 #
 # WARNING: High-energy factorization with free-atom DF screening.
 #          Absorption, polarization and exchange corrections are
 #          switched off.
 #          Phase shifts are calculated for the bare nucleus.
 #          Scattering amplitudes are not evaluated.
 #
 # Element: Tb,  Z =  65,  atomic weight = 1.58925E+02 g/mol
 #
 # Nuclear model: Fermi distribution
 #                Average radius = 5.79582E-13 cm
 #                Skin thickness = 5.46000E-14 cm
 #
 # Number of electrons = 65
 #
 # Total elastic cross section = 7.26190E-18 cm**2 = 2.59327E-01 a0**2
 # 1st transport cross section = 3.82446E-22 cm**2 = 1.36574E-05 a0**2
 # 2nd transport cross section = 1.04305E-21 cm**2 = 3.72480E-05 a0**2
 #
 #
 # Differential cross section:                       MU=(1-COS(THETA))/2
 #
 #  THETA        MU          DCS          DCS        Sherman      error
 #  (deg)                 (cm**2/sr)   (a0**2/sr)    function
 #----------------------------------------------------------------------
  0.000E+00  0.00000E+00  1.44889E-12  5.17410E+04  0.00000E+00  1.0E-05
  1.000E-04  7.61557E-13  1.44888E-12  5.17406E+04  0.00000E+00  1.0E-05
  1.250E-04  1.18994E-12  1.44888E-12  5.17403E+04  0.00000E+00  1.0E-05
  1.500E-04  1.71346E-12  1.44887E-12  5.17400E+04  0.00000E+00  1.0E-05
  1.750E-04  2.33225E-12  1.44886E-12  5.17397E+04  0.00000E+00  1.0E-05
  2.000E-04  3.04617E-12  1.44885E-12  5.17393E+04  0.00000E+00  1.0E-05
  2.250E-04  3.85530E-12  1.44883E-12  5.17388E+04  0.00000E+00  1.0E-05
  2.500E-04  4.75964E-12  1.44882E-12  5.17383E+04  0.00000E+00  1.0E-05
  2.750E-04  5.75917E-12  1.44880E-12  5.17377E+04  0.00000E+00  1.0E-05
  3.000E-04  6.85391E-12  1.44879E-12  5.17371E+04  0.00000E+00  1.0E-05
  3.250E-04  8.04379E-12  1.44877E-12  5.17364E+04  0.00000E+00  1.0E-05
  3.500E-04  9.32893E-12  1.44875E-12  5.17357E+04  0.00000E+00  1.0E-05
  3.750E-04  1.07092E-11  1.44872E-12  5.17349E+04  0.00000E+00  1.0E-05
  4.000E-04  1.21847E-11  1.44870E-12  5.17341E+04  0.00000E+00  1.0E-05
  4.250E-04  1.37554E-11  1.44868E-12  5.17332E+04  0.00000E+00  1.0E-05
  4.500E-04  1.54213E-11  1.44865E-12  5.17322E+04  0.00000E+00  1.0E-05
  4.750E-04  1.71823E-11  1.44862E-12  5.17312E+04  0.00000E+00  1.0E-05
  5.000E-04  1.90386E-11  1.44859E-12  5.17302E+04  0.00000E+00  1.0E-05
  5.250E-04  2.09900E-11  1.44856E-12  5.17291E+04  0.00000E+00  1.0E-05
  5.500E-04  2.30367E-11  1.44853E-12  5.17279E+04  0.00000E+00  1.0E-05
  5.750E-04  2.51785E-11  1.44849E-12  5.17267E+04  0.00000E+00  1.0E-05
  6.000E-04  2.74156E-11  1.44846E-12  5.17254E+04  0.00000E+00  1.0E-05
  6.250E-04  2.97478E-11  1.44842E-12  5.17241E+04  0.00000E+00  1.0E-05
  6.500E-04  3.21752E-11  1.44838E-12  5.17227E+04  0.00000E+00  1.0E-05
  6.750E-04  3.46979E-11  1.44834E-12  5.17213E+04  0.00000E+00  1.0E-05
  7.000E-04  3.73157E-11  1.44830E-12  5.17198E+04  0.00000E+00  1.0E-05
  7.250E-04  4.00286E-11  1.44826E-12  5.17183E+04  0.00000E+00  1.0E-05
  7.500E-04  4.28368E-11  1.44821E-12  5.17167E+04  0.00000E+00  1.0E-05
  7.750E-04  4.57402E-11  1.44817E-12  5.17150E+04  0.00000E+00  1.0E-05
  8.000E-04  4.87388E-11  1.44812E-12  5.17133E+04  0.00000E+00  1.0E-05
  8.250E-04  5.18325E-11  1.44807E-12  5.17115E+04  0.00000E+00  1.0E-05
  8.500E-04  5.50215E-11  1.44802E-12  5.17097E+04  0.00000E+00  1.0E-05
  8.750E-04  5.83057E-11  1.44797E-12  5.17079E+04  0.00000E+00  1.0E-05
  9.000E-04  6.16850E-11  1.44791E-12  5.17059E+04  0.00000E+00  1.0E-05
  9.250E-04  6.51595E-11  1.44786E-12  5.17040E+04  0.00000E+00  1.0E-05
  9.500E-04  6.87293E-11  1.44780E-12  5.17019E+04  0.00000E+00  1.0E-05
  9.750E-04  7.23943E-11  1.44774E-12  5.16999E+04  0.00000E+00  1.0E-05
  1.000E-03  7.61544E-11  1.44768E-12  5.16977E+04  0.00000E+00  1.0E-05
  1.250E-03  1.18991E-10  1.44700E-12  5.16734E+04  0.00000E+00  1.0E-05
  1.500E-03  1.71347E-10  1.44617E-12  5.16437E+04  0.00000E+00  1.0E-05
  1.750E-03  2.33223E-10  1.44519E-12  5.16086E+04  0.00000E+00  1.0E-05
  2.000E-03  3.04617E-10  1.44406E-12  5.15681E+04  0.00000E+00  1.0E-05
  2.250E-03  3.85531E-10  1.44277E-12  5.15224E+04  0.00000E+00  1.0E-05
  2.500E-03  4.75965E-10  1.44134E-12  5.14713E+04  0.00000E+00  1.0E-05
  2.750E-03  5.75917E-10  1.43977E-12  5.14149E+04  0.00000E+00  1.0E-05
  3.000E-03  6.85389E-10  1.43804E-12  5.13533E+04  0.00000E+00  1.0E-05
  3.250E-03  8.04380E-10  1.43617E-12  5.12865E+04  0.00000E+00  1.0E-05
  3.500E-03  9.32891E-10  1.43415E-12  5.12145E+04  0.00000E+00  1.0E-05
  3.750E-03  1.07092E-09  1.43199E-12  5.11373E+04  0.00000E+00  1.0E-05
  4.000E-03  1.21847E-09  1.42969E-12  5.10551E+04  0.00000E+00  1.0E-05
  4.250E-03  1.37554E-09  1.42724E-12  5.09677E+04  0.00000E+00  1.0E-05
  4.500E-03  1.54213E-09  1.42466E-12  5.08754E+04  0.00000E+00  1.0E-05
  4.750E-03  1.71823E-09  1.42193E-12  5.07780E+04  0.00000E+00  1.0E-05
  5.000E-03  1.90386E-09  1.41907E-12  5.06758E+04  0.00000E+00  1.0E-05
  5.250E-03  2.09900E-09  1.41607E-12  5.05686E+04  0.00000E+00  1.0E-05
  5.500E-03  2.30367E-09  1.41293E-12  5.04567E+04  0.00000E+00  1.0E-05
  5.750E-03  2.51785E-09  1.40966E-12  5.03399E+04  0.00000E+00  1.0E-05
  6.000E-03  2.74156E-09  1.40626E-12  5.02185E+04  0.00000E+00  1.0E-05
  6.250E-03  2.97478E-09  1.40273E-12  5.00924E+04  0.00000E+00  1.0E-05
  6.500E-03  3.21752E-09  1.39907E-12  4.99618E+04  0.00000E+00  1.0E-05
  6.750E-03  3.46978E-09  1.39529E-12  4.98266E+04  0.00000E+00  1.0E-05
  7.000E-03  3.73156E-09  1.39138E-12  4.96869E+04  0.00000E+00  1.0E-05
  7.250E-03  4.00286E-09  1.38734E-12  4.95429E+04  0.00000E+00  1.0E-05
  7.500E-03  4.28368E-09  1.38319E-12  4.93945E+04  0.00000E+00  1.0E-05
  7.750E-03  4.57402E-09  1.37891E-12  4.92419E+04  0.00000E+00  1.0E-05
  8.000E-03  4.87388E-09  1.37452E-12  4.90852E+04  0.00000E+00  1.0E-05
  8.250E-03  5.18326E-09  1.37002E-12  4.89243E+04  0.00000E+00  1.0E-05
  8.500E-03  5.50215E-09  1.36540E-12  4.87594E+04  0.00000E+00  1.0E-05
  8.750E-03  5.83057E-09  1.36067E-12  4.85906E+04  0.00000E+00  1.0E-05
  9.000E-03  6.16850E-09  1.35584E-12  4.84178E+04  0.00000E+00  1.0E-05
  9.250E-03  6.51596E-09  1.35089E-12  4.82413E+04  0.00000E+00  1.0E-05
  9.500E-03  6.87293E-09  1.34585E-12  4.80611E+04  0.00000E+00  1.0E-05
  9.750E-03  7.23942E-09  1.34070E-12  4.78773E+04  0.00000E+00  1.0E-05
  1.000E-02  7.61544E-09  1.33545E-12  4.76899E+04  0.00000E+00  1.0E-05
  1.250E-02  1.18991E-08  1.27804E-12  4.56397E+04  0.00000E+00  1.0E-05
  1.500E-02  1.71347E-08  1.21359E-12  4.33381E+04  0.00000E+00  1.0E-05
  1.750E-02  2.33223E-08  1.14416E-12  4.08587E+04  0.00000E+00  1.0E-05
  2.000E-02  3.04617E-08  1.07209E-12  3.82851E+04  0.00000E+00  1.0E-05
  2.250E-02  3.85531E-08  9.99782E-13  3.57029E+04  0.00000E+00  1.0E-05
  2.500E-02  4.75965E-08  9.28859E-13  3.31702E+04  0.00000E+00  1.0E-05
  2.750E-02  5.75917E-08  8.60373E-13  3.07245E+04  0.00000E+00  1.0E-05
  3.000E-02  6.85389E-08  7.95266E-13  2.83995E+04  0.00000E+00  1.0E-05
  3.250E-02  8.04380E-08  7.34425E-13  2.62268E+04  0.00000E+00  1.0E-05
  3.500E-02  9.32891E-08  6.78265E-13  2.42213E+04  0.00000E+00  1.0E-05
  3.750E-02  1.07092E-07  6.26521E-13  2.23735E+04  0.00000E+00  1.0E-05
  4.000E-02  1.21847E-07  5.79161E-13  2.06822E+04  0.00000E+00  1.0E-05
  4.250E-02  1.37554E-07  5.36120E-13  1.91452E+04  0.00000E+00  1.0E-05
  4.500E-02  1.54213E-07  4.97310E-13  1.77593E+04  0.00000E+00  1.0E-05
  4.750E-02  1.71823E-07  4.62101E-13  1.65019E+04  0.00000E+00  1.0E-05
  5.000E-02  1.90386E-07  4.30208E-13  1.53630E+04  0.00000E+00  1.0E-05
  5.250E-02  2.09900E-07  4.01341E-13  1.43321E+04  0.00000E+00  1.0E-05
  5.500E-02  2.30367E-07  3.75322E-13  1.34030E+04  0.00000E+00  1.0E-05
  5.750E-02  2.51785E-07  3.51671E-13  1.25584E+04  0.00000E+00  1.0E-05
  6.000E-02  2.74156E-07  3.30147E-13  1.17898E+04  0.00000E+00  1.0E-05
  6.250E-02  2.97478E-07  3.10531E-13  1.10893E+04  0.00000E+00  1.0E-05
  6.500E-02  3.21752E-07  2.92619E-13  1.04496E+04  0.00000E+00  1.0E-05
  6.750E-02  3.46978E-07  2.76184E-13  9.86270E+03  0.00000E+00  1.0E-05
  7.000E-02  3.73156E-07  2.61068E-13  9.32291E+03  0.00000E+00  1.0E-05
  7.250E-02  4.00286E-07  2.47135E-13  8.82537E+03  0.00000E+00  1.0E-05
  7.500E-02  4.28368E-07  2.34232E-13  8.36457E+03  0.00000E+00  1.0E-05
  7.750E-02  4.57402E-07  2.22245E-13  7.93650E+03  0.00000E+00  1.0E-05
  8.000E-02  4.87388E-07  2.11100E-13  7.53852E+03  0.00000E+00  1.0E-05
  8.250E-02  5.18325E-07  2.00718E-13  7.16778E+03  0.00000E+00  1.0E-05
  8.500E-02  5.50215E-07  1.90999E-13  6.82071E+03  0.00000E+00  1.0E-05
  8.750E-02  5.83057E-07  1.81867E-13  6.49458E+03  0.00000E+00  1.0E-05
  9.000E-02  6.16850E-07  1.73304E-13  6.18880E+03  0.00000E+00  1.0E-05
  9.250E-02  6.51596E-07  1.65264E-13  5.90167E+03  0.00000E+00  1.0E-05
  9.500E-02  6.87293E-07  1.57687E-13  5.63112E+03  0.00000E+00  1.0E-05
  9.750E-02  7.23942E-07  1.50505E-13  5.37462E+03  0.00000E+00  1.0E-05
  1.000E-01  7.61543E-07  1.43732E-13  5.13276E+03  0.00000E+00  1.0E-05
  1.250E-01  1.18991E-06  9.26654E-14  3.30914E+03  0.00000E+00  1.0E-05
  1.500E-01  1.71347E-06  6.08671E-14  2.17360E+03  0.00000E+00  1.0E-05
  1.750E-01  2.33223E-06  4.20053E-14  1.50004E+03  0.00000E+00  1.0E-05
  2.000E-01  3.04617E-06  2.98934E-14  1.06751E+03  0.00000E+00  1.0E-05
  2.250E-01  3.85531E-06  2.17256E-14  7.75836E+02  0.00000E+00  1.0E-05
  2.500E-01  4.75964E-06  1.61492E-14  5.76698E+02  0.00000E+00  1.0E-05
  2.750E-01  5.75916E-06  1.22651E-14  4.37994E+02  0.00000E+00  1.0E-05
  3.000E-01  6.85388E-06  9.47670E-15  3.38419E+02  0.00000E+00  1.0E-05
  3.250E-01  8.04378E-06  7.40930E-15  2.64591E+02  0.00000E+00  1.0E-05
  3.500E-01  9.32888E-06  5.85259E-15  2.09000E+02  0.00000E+00  1.0E-05
  3.750E-01  1.07092E-05  4.67958E-15  1.67111E+02  0.00000E+00  1.0E-05
  4.000E-01  1.21846E-05  3.78211E-15  1.35061E+02  0.00000E+00  1.0E-05
  4.250E-01  1.37553E-05  3.08537E-15  1.10180E+02  0.00000E+00  1.0E-05
  4.500E-01  1.54212E-05  2.53773E-15  9.06241E+01  0.00000E+00  1.0E-05
  4.750E-01  1.71822E-05  2.10740E-15  7.52566E+01  0.00000E+00  1.0E-05
  5.000E-01  1.90385E-05  1.76469E-15  6.30181E+01  0.00000E+00  1.0E-05
  5.250E-01  2.09899E-05  1.49136E-15  5.32575E+01  0.00000E+00  1.0E-05
  5.500E-01  2.30365E-05  1.26905E-15  4.53187E+01  0.00000E+00  1.0E-05
  5.750E-01  2.51783E-05  1.08759E-15  3.88387E+01  0.00000E+00  1.0E-05
  6.000E-01  2.74153E-05  9.38187E-16  3.35033E+01  0.00000E+00  1.0E-05
  6.250E-01  2.97475E-05  8.14267E-16  2.90780E+01  0.00000E+00  1.0E-05
  6.500E-01  3.21749E-05  7.10718E-16  2.53802E+01  0.00000E+00  1.0E-05
  6.750E-01  3.46974E-05  6.23260E-16  2.22570E+01  0.00000E+00  1.0E-05
  7.000E-01  3.73152E-05  5.49199E-16  1.96123E+01  0.00000E+00  1.0E-05
  7.250E-01  4.00281E-05  4.86183E-16  1.73619E+01  0.00000E+00  1.0E-05
  7.500E-01  4.28362E-05  4.32112E-16  1.54310E+01  0.00000E+00  1.0E-05
  7.750E-01  4.57395E-05  3.85470E-16  1.37654E+01  0.00000E+00  1.0E-05
  8.000E-01  4.87380E-05  3.45057E-16  1.23222E+01  0.00000E+00  1.0E-05
  8.250E-01  5.18317E-05  3.09860E-16  1.10653E+01  0.00000E+00  1.0E-05
  8.500E-01  5.50205E-05  2.79007E-16  9.96351E+00  0.00000E+00  1.0E-05
  8.750E-01  5.83045E-05  2.51839E-16  8.99335E+00  0.00000E+00  1.0E-05
  9.000E-01  6.16838E-05  2.27899E-16  8.13841E+00  0.00000E+00  1.0E-05
  9.250E-01  6.51582E-05  2.06732E-16  7.38253E+00  0.00000E+00  1.0E-05
  9.500E-01  6.87277E-05  1.87943E-16  6.71155E+00  0.00000E+00  1.0E-05
  9.750E-01  7.23925E-05  1.71189E-16  6.11327E+00  0.00000E+00  1.0E-05
  1.000E+00  7.61524E-05  1.56259E-16  5.58011E+00  0.00000E+00  6.2E-06
  1.100E+00  9.21439E-05  1.10514E-16  3.94652E+00  0.00000E+00  4.6E-06
  1.200E+00  1.09658E-04  8.02634E-17  2.86626E+00  0.00000E+00  2.5E-06
  1.300E+00  1.28695E-04  5.96389E-17  2.12974E+00  0.00000E+00  5.0E-07
  1.400E+00  1.49255E-04  4.51887E-17  1.61372E+00  0.00000E+00  1.0E-06
  1.500E+00  1.71338E-04  3.48909E-17  1.24598E+00  0.00000E+00  1.8E-06
  1.600E+00  1.94942E-04  2.73758E-17  9.77607E-01  0.00000E+00  1.9E-06
  1.700E+00  2.20070E-04  2.17823E-17  7.77860E-01  0.00000E+00  1.5E-06
  1.800E+00  2.46720E-04  1.75465E-17  6.26597E-01  0.00000E+00  8.5E-07
  1.900E+00  2.74892E-04  1.42976E-17  5.10576E-01  0.00000E+00  1.3E-07
  2.000E+00  3.04586E-04  1.17709E-17  4.20347E-01  0.00000E+00  4.6E-07
  2.100E+00  3.35803E-04  9.78112E-18  3.49290E-01  0.00000E+00  8.0E-07
  2.200E+00  3.68542E-04  8.19319E-18  2.92584E-01  0.00000E+00  8.7E-07
  2.300E+00  4.02802E-04  6.91637E-18  2.46988E-01  0.00000E+00  7.0E-07
  2.400E+00  4.38585E-04  5.87991E-18  2.09975E-01  0.00000E+00  3.9E-07
  2.500E+00  4.75889E-04  5.03126E-18  1.79670E-01  0.00000E+00  1.0E-07
  2.600E+00  5.14715E-04  4.32981E-18  1.54620E-01  0.00000E+00  2.6E-07
  2.700E+00  5.55063E-04  3.74674E-18  1.33798E-01  0.00000E+00  4.4E-07
  2.800E+00  5.96931E-04  3.25890E-18  1.16377E-01  0.00000E+00  4.7E-07
  2.900E+00  6.40321E-04  2.84812E-18  1.01708E-01  0.00000E+00  3.8E-07
  3.000E+00  6.85233E-04  2.49992E-18  8.92736E-02  0.00000E+00  2.1E-07
  3.100E+00  7.31665E-04  2.20333E-18  7.86823E-02  0.00000E+00  1.0E-07
  3.200E+00  7.79618E-04  1.94955E-18  6.96197E-02  0.00000E+00  1.7E-07
  3.300E+00  8.29092E-04  1.73135E-18  6.18275E-02  0.00000E+00  2.7E-07
  3.400E+00  8.80086E-04  1.54280E-18  5.50945E-02  0.00000E+00  2.9E-07
  3.500E+00  9.32601E-04  1.37920E-18  4.92520E-02  0.00000E+00  2.3E-07
  3.600E+00  9.86636E-04  1.23676E-18  4.41655E-02  0.00000E+00  1.2E-07
  3.700E+00  1.04219E-03  1.11228E-18  3.97203E-02  0.00000E+00  1.0E-07
  3.800E+00  1.09927E-03  1.00309E-18  3.58209E-02  0.00000E+00  1.2E-07
  3.900E+00  1.15786E-03  9.06939E-19  3.23874E-02  0.00000E+00  1.8E-07
  4.000E+00  1.21797E-03  8.22070E-19  2.93567E-02  0.00000E+00  1.9E-07
  4.100E+00  1.27961E-03  7.46925E-19  2.66732E-02  0.00000E+00  1.5E-07
  4.200E+00  1.34276E-03  6.80193E-19  2.42901E-02  0.00000E+00  1.0E-07
  4.300E+00  1.40743E-03  6.20735E-19  2.21669E-02  0.00000E+00  1.0E-07
  4.400E+00  1.47362E-03  5.67656E-19  2.02713E-02  0.00000E+00  1.0E-07
  4.500E+00  1.54133E-03  5.20149E-19  1.85749E-02  0.00000E+00  1.3E-07
  4.600E+00  1.61056E-03  4.77527E-19  1.70528E-02  0.00000E+00  1.3E-07
  4.700E+00  1.68131E-03  4.39182E-19  1.56835E-02  0.00000E+00  1.0E-07
  4.800E+00  1.75357E-03  4.04623E-19  1.44493E-02  0.00000E+00  1.0E-07
  4.900E+00  1.82735E-03  3.73412E-19  1.33348E-02  0.00000E+00  1.0E-07
  5.000E+00  1.90265E-03  3.45165E-19  1.23261E-02  0.00000E+00  1.0E-07
  5.100E+00  1.97947E-03  3.19546E-19  1.14112E-02  0.00000E+00  1.0E-07
  5.200E+00  2.05780E-03  2.96268E-19  1.05799E-02  0.00000E+00  1.0E-07
  5.300E+00  2.13765E-03  2.75082E-19  9.82337E-03  0.00000E+00  1.0E-07
  5.400E+00  2.21902E-03  2.55767E-19  9.13361E-03  0.00000E+00  1.0E-07
  5.500E+00  2.30190E-03  2.38124E-19  8.50357E-03  0.00000E+00  1.0E-07
  5.600E+00  2.38630E-03  2.21982E-19  7.92714E-03  0.00000E+00  1.0E-07
  5.700E+00  2.47222E-03  2.07194E-19  7.39903E-03  0.00000E+00  1.0E-07
  5.800E+00  2.55965E-03  1.93624E-19  6.91443E-03  0.00000E+00  1.0E-07
  5.900E+00  2.64859E-03  1.81153E-19  6.46908E-03  0.00000E+00  1.0E-07
  6.000E+00  2.73905E-03  1.69674E-19  6.05916E-03  0.00000E+00  1.0E-07
  6.100E+00  2.83103E-03  1.59096E-19  5.68142E-03  0.00000E+00  1.0E-07
  6.200E+00  2.92452E-03  1.49336E-19  5.33287E-03  0.00000E+00  1.0E-07
  6.300E+00  3.01952E-03  1.40317E-19  5.01081E-03  0.00000E+00  1.0E-07
  6.400E+00  3.11604E-03  1.31972E-19  4.71281E-03  0.00000E+00  1.0E-07
  6.500E+00  3.21407E-03  1.24243E-19  4.43681E-03  0.00000E+00  1.0E-07
  6.600E+00  3.31362E-03  1.17076E-19  4.18087E-03  0.00000E+00  1.0E-07
  6.700E+00  3.41468E-03  1.10422E-19  3.94325E-03  0.00000E+00  1.0E-07
  6.800E+00  3.51725E-03  1.04237E-19  3.72237E-03  0.00000E+00  1.0E-07
  6.900E+00  3.62133E-03  9.84823E-20  3.51687E-03  0.00000E+00  1.0E-07
  7.000E+00  3.72692E-03  9.31225E-20  3.32546E-03  0.00000E+00  1.0E-07
  7.100E+00  3.83403E-03  8.81253E-20  3.14701E-03  0.00000E+00  1.0E-07
  7.200E+00  3.94265E-03  8.34611E-20  2.98045E-03  0.00000E+00  1.0E-07
  7.300E+00  4.05278E-03  7.91038E-20  2.82485E-03  0.00000E+00  1.0E-07
  7.400E+00  4.16442E-03  7.50297E-20  2.67936E-03  0.00000E+00  1.0E-07
  7.500E+00  4.27757E-03  7.12168E-20  2.54320E-03  0.00000E+00  1.0E-07
  7.600E+00  4.39223E-03  6.76449E-20  2.41564E-03  0.00000E+00  1.0E-07
  7.700E+00  4.50840E-03  6.42960E-20  2.29605E-03  0.00000E+00  1.0E-07
  7.800E+00  4.62608E-03  6.11537E-20  2.18384E-03  0.00000E+00  1.0E-07
  7.900E+00  4.74527E-03  5.82028E-20  2.07846E-03  0.00000E+00  1.0E-07
  8.000E+00  4.86597E-03  5.54293E-20  1.97942E-03  0.00000E+00  1.0E-07
  8.100E+00  4.98817E-03  5.28204E-20  1.88625E-03  0.00000E+00  1.0E-07
  8.200E+00  5.11188E-03  5.03647E-20  1.79856E-03  0.00000E+00  1.0E-07
  8.300E+00  5.23711E-03  4.80515E-20  1.71595E-03  0.00000E+00  1.0E-07
  8.400E+00  5.36383E-03  4.58708E-20  1.63808E-03  0.00000E+00  1.0E-07
  8.500E+00  5.49207E-03  4.38136E-20  1.56461E-03  0.00000E+00  1.0E-07
  8.600E+00  5.62181E-03  4.18715E-20  1.49526E-03  0.00000E+00  1.0E-07
  8.700E+00  5.75306E-03  4.00370E-20  1.42975E-03  0.00000E+00  1.0E-07
  8.800E+00  5.88581E-03  3.83029E-20  1.36782E-03  0.00000E+00  1.0E-07
  8.900E+00  6.02007E-03  3.66625E-20  1.30924E-03  0.00000E+00  1.0E-07
  9.000E+00  6.15583E-03  3.51099E-20  1.25380E-03  0.00000E+00  1.0E-07
  9.100E+00  6.29310E-03  3.36395E-20  1.20129E-03  0.00000E+00  1.0E-07
  9.200E+00  6.43187E-03  3.22462E-20  1.15153E-03  0.00000E+00  1.0E-07
  9.300E+00  6.57214E-03  3.09250E-20  1.10435E-03  0.00000E+00  1.0E-07
  9.400E+00  6.71392E-03  2.96714E-20  1.05959E-03  0.00000E+00  1.0E-07
  9.500E+00  6.85720E-03  2.84815E-20  1.01709E-03  0.00000E+00  1.0E-07
  9.600E+00  7.00198E-03  2.73514E-20  9.76735E-04  0.00000E+00  1.0E-07
  9.700E+00  7.14827E-03  2.62773E-20  9.38379E-04  0.00000E+00  1.0E-07
  9.800E+00  7.29605E-03  2.52560E-20  9.01908E-04  0.00000E+00  1.0E-07
  9.900E+00  7.44534E-03  2.42844E-20  8.67213E-04  0.00000E+00  1.0E-07
  1.000E+01  7.59612E-03  2.33598E-20  8.34192E-04  0.00000E+00  1.0E-07
  1.025E+01  7.97965E-03  2.12355E-20  7.58334E-04  0.00000E+00  1.0E-07
  1.050E+01  8.37255E-03  1.93500E-20  6.91002E-04  0.00000E+00  1.0E-07
  1.075E+01  8.77480E-03  1.76716E-20  6.31066E-04  0.00000E+00  1.0E-07
  1.100E+01  9.18641E-03  1.61735E-20  5.77567E-04  0.00000E+00  1.0E-07
  1.125E+01  9.60736E-03  1.48328E-20  5.29689E-04  0.00000E+00  1.0E-07
  1.150E+01  1.00376E-02  1.36299E-20  4.86733E-04  0.00000E+00  1.0E-07
  1.175E+01  1.04773E-02  1.25481E-20  4.48102E-04  0.00000E+00  1.0E-07
  1.200E+01  1.09262E-02  1.15730E-20  4.13279E-04  0.00000E+00  1.0E-07
  1.225E+01  1.13844E-02  1.06921E-20  3.81821E-04  0.00000E+00  1.0E-07
  1.250E+01  1.18520E-02  9.89460E-21  3.53343E-04  0.00000E+00  1.0E-07
  1.275E+01  1.23288E-02  9.17118E-21  3.27509E-04  0.00000E+00  1.0E-07
  1.300E+01  1.28150E-02  8.51367E-21  3.04029E-04  0.00000E+00  1.0E-07
  1.325E+01  1.33104E-02  7.91489E-21  2.82646E-04  0.00000E+00  1.0E-07
  1.350E+01  1.38150E-02  7.36873E-21  2.63142E-04  0.00000E+00  1.0E-07
  1.375E+01  1.43290E-02  6.86960E-21  2.45318E-04  0.00000E+00  1.0E-07
  1.400E+01  1.48521E-02  6.41272E-21  2.29002E-04  0.00000E+00  1.0E-07
  1.425E+01  1.53845E-02  5.99384E-21  2.14044E-04  0.00000E+00  1.0E-07
  1.450E+01  1.59262E-02  5.60921E-21  2.00309E-04  0.00000E+00  1.0E-07
  1.475E+01  1.64770E-02  5.25548E-21  1.87677E-04  0.00000E+00  1.0E-07
  1.500E+01  1.70371E-02  4.92969E-21  1.76042E-04  0.00000E+00  1.0E-07
  1.525E+01  1.76063E-02  4.62923E-21  1.65313E-04  0.00000E+00  1.0E-07
