 #
 # Subroutine ELSEPA. Elastic scattering of electrons and positrons
 #                    by neutral atoms and positive ions
 #
 # Projectile: electron
 # Kinetic energy = 3.70000E+06 eV = 1.35973E+05 a.u.
 #
 # WARNING: High-energy factorization with free-atom DF screening.
 #          Absorption, polarization and exchange corrections are
 #          switched off.
 #          Phase shifts are calculated for the bare nucleus.
 #          Scattering amplitudes are not evaluated.
 #
 # Element: Th,  Z =  90,  atomic weight = 2.32038E+02 g/mol
 #
 # Nuclear model: Fermi distribution
 #                Average radius = 6.57512E-13 cm
 #                Skin thickness = 5.46000E-14 cm
 #
 # Number of electrons = 90
 #
 # Total elastic cross section = 1.20648E-17 cm**2 = 4.30842E-01 a0**2
 # 1st transport cross section = 7.66397E-22 cm**2 = 2.73685E-05 a0**2
 # 2nd transport cross section = 2.00153E-21 cm**2 = 7.14759E-05 a0**2
 #
 #
 # Differential cross section:                       MU=(1-COS(THETA))/2
 #
 #  THETA        MU          DCS          DCS        Sherman      error
 #  (deg)                 (cm**2/sr)   (a0**2/sr)    function
 #----------------------------------------------------------------------
  0.000E+00  0.00000E+00  2.58944E-12  9.24705E+04  0.00000E+00  1.0E-05
  1.000E-04  7.61557E-13  2.58942E-12  9.24698E+04  0.00000E+00  1.0E-05
  1.250E-04  1.18994E-12  2.58941E-12  9.24695E+04  0.00000E+00  1.0E-05
  1.500E-04  1.71346E-12  2.58940E-12  9.24690E+04  0.00000E+00  1.0E-05
  1.750E-04  2.33225E-12  2.58938E-12  9.24685E+04  0.00000E+00  1.0E-05
  2.000E-04  3.04617E-12  2.58937E-12  9.24679E+04  0.00000E+00  1.0E-05
  2.250E-04  3.85530E-12  2.58935E-12  9.24672E+04  0.00000E+00  1.0E-05
  2.500E-04  4.75964E-12  2.58932E-12  9.24665E+04  0.00000E+00  1.0E-05
  2.750E-04  5.75917E-12  2.58930E-12  9.24656E+04  0.00000E+00  1.0E-05
  3.000E-04  6.85391E-12  2.58928E-12  9.24647E+04  0.00000E+00  1.0E-05
  3.250E-04  8.04379E-12  2.58925E-12  9.24637E+04  0.00000E+00  1.0E-05
  3.500E-04  9.32893E-12  2.58922E-12  9.24626E+04  0.00000E+00  1.0E-05
  3.750E-04  1.07092E-11  2.58918E-12  9.24614E+04  0.00000E+00  1.0E-05
  4.000E-04  1.21847E-11  2.58915E-12  9.24602E+04  0.00000E+00  1.0E-05
  4.250E-04  1.37554E-11  2.58911E-12  9.24588E+04  0.00000E+00  1.0E-05
  4.500E-04  1.54213E-11  2.58907E-12  9.24574E+04  0.00000E+00  1.0E-05
  4.750E-04  1.71823E-11  2.58903E-12  9.24559E+04  0.00000E+00  1.0E-05
  5.000E-04  1.90386E-11  2.58899E-12  9.24544E+04  0.00000E+00  1.0E-05
  5.250E-04  2.09900E-11  2.58894E-12  9.24527E+04  0.00000E+00  1.0E-05
  5.500E-04  2.30367E-11  2.58889E-12  9.24510E+04  0.00000E+00  1.0E-05
  5.750E-04  2.51785E-11  2.58884E-12  9.24492E+04  0.00000E+00  1.0E-05
  6.000E-04  2.74156E-11  2.58879E-12  9.24473E+04  0.00000E+00  1.0E-05
  6.250E-04  2.97478E-11  2.58873E-12  9.24453E+04  0.00000E+00  1.0E-05
  6.500E-04  3.21752E-11  2.58867E-12  9.24432E+04  0.00000E+00  1.0E-05
  6.750E-04  3.46979E-11  2.58861E-12  9.24411E+04  0.00000E+00  1.0E-05
  7.000E-04  3.73157E-11  2.58855E-12  9.24389E+04  0.00000E+00  1.0E-05
  7.250E-04  4.00286E-11  2.58849E-12  9.24366E+04  0.00000E+00  1.0E-05
  7.500E-04  4.28368E-11  2.58842E-12  9.24342E+04  0.00000E+00  1.0E-05
  7.750E-04  4.57402E-11  2.58835E-12  9.24317E+04  0.00000E+00  1.0E-05
  8.000E-04  4.87388E-11  2.58828E-12  9.24292E+04  0.00000E+00  1.0E-05
  8.250E-04  5.18325E-11  2.58821E-12  9.24266E+04  0.00000E+00  1.0E-05
  8.500E-04  5.50215E-11  2.58813E-12  9.24239E+04  0.00000E+00  1.0E-05
  8.750E-04  5.83057E-11  2.58805E-12  9.24211E+04  0.00000E+00  1.0E-05
  9.000E-04  6.16850E-11  2.58797E-12  9.24182E+04  0.00000E+00  1.0E-05
  9.250E-04  6.51595E-11  2.58789E-12  9.24153E+04  0.00000E+00  1.0E-05
  9.500E-04  6.87293E-11  2.58781E-12  9.24122E+04  0.00000E+00  1.0E-05
  9.750E-04  7.23943E-11  2.58772E-12  9.24091E+04  0.00000E+00  1.0E-05
  1.000E-03  7.61544E-11  2.58763E-12  9.24060E+04  0.00000E+00  1.0E-05
  1.250E-03  1.18991E-10  2.58661E-12  9.23696E+04  0.00000E+00  1.0E-05
  1.500E-03  1.71347E-10  2.58537E-12  9.23253E+04  0.00000E+00  1.0E-05
  1.750E-03  2.33223E-10  2.58390E-12  9.22729E+04  0.00000E+00  1.0E-05
  2.000E-03  3.04617E-10  2.58221E-12  9.22125E+04  0.00000E+00  1.0E-05
  2.250E-03  3.85531E-10  2.58030E-12  9.21442E+04  0.00000E+00  1.0E-05
  2.500E-03  4.75965E-10  2.57816E-12  9.20679E+04  0.00000E+00  1.0E-05
  2.750E-03  5.75917E-10  2.57580E-12  9.19836E+04  0.00000E+00  1.0E-05
  3.000E-03  6.85389E-10  2.57322E-12  9.18915E+04  0.00000E+00  1.0E-05
  3.250E-03  8.04380E-10  2.57043E-12  9.17915E+04  0.00000E+00  1.0E-05
  3.500E-03  9.32891E-10  2.56741E-12  9.16838E+04  0.00000E+00  1.0E-05
  3.750E-03  1.07092E-09  2.56417E-12  9.15683E+04  0.00000E+00  1.0E-05
  4.000E-03  1.21847E-09  2.56072E-12  9.14450E+04  0.00000E+00  1.0E-05
  4.250E-03  1.37554E-09  2.55706E-12  9.13141E+04  0.00000E+00  1.0E-05
  4.500E-03  1.54213E-09  2.55318E-12  9.11756E+04  0.00000E+00  1.0E-05
  4.750E-03  1.71823E-09  2.54909E-12  9.10296E+04  0.00000E+00  1.0E-05
  5.000E-03  1.90386E-09  2.54479E-12  9.08760E+04  0.00000E+00  1.0E-05
  5.250E-03  2.09900E-09  2.54028E-12  9.07150E+04  0.00000E+00  1.0E-05
  5.500E-03  2.30367E-09  2.53557E-12  9.05467E+04  0.00000E+00  1.0E-05
  5.750E-03  2.51785E-09  2.53065E-12  9.03711E+04  0.00000E+00  1.0E-05
  6.000E-03  2.74156E-09  2.52553E-12  9.01882E+04  0.00000E+00  1.0E-05
  6.250E-03  2.97478E-09  2.52021E-12  8.99983E+04  0.00000E+00  1.0E-05
  6.500E-03  3.21752E-09  2.51469E-12  8.98012E+04  0.00000E+00  1.0E-05
  6.750E-03  3.46978E-09  2.50897E-12  8.95971E+04  0.00000E+00  1.0E-05
  7.000E-03  3.73156E-09  2.50307E-12  8.93861E+04  0.00000E+00  1.0E-05
  7.250E-03  4.00286E-09  2.49697E-12  8.91683E+04  0.00000E+00  1.0E-05
  7.500E-03  4.28368E-09  2.49068E-12  8.89438E+04  0.00000E+00  1.0E-05
  7.750E-03  4.57402E-09  2.48421E-12  8.87126E+04  0.00000E+00  1.0E-05
  8.000E-03  4.87388E-09  2.47755E-12  8.84748E+04  0.00000E+00  1.0E-05
  8.250E-03  5.18326E-09  2.47071E-12  8.82306E+04  0.00000E+00  1.0E-05
  8.500E-03  5.50215E-09  2.46369E-12  8.79799E+04  0.00000E+00  1.0E-05
  8.750E-03  5.83057E-09  2.45650E-12  8.77230E+04  0.00000E+00  1.0E-05
  9.000E-03  6.16850E-09  2.44913E-12  8.74600E+04  0.00000E+00  1.0E-05
  9.250E-03  6.51596E-09  2.44159E-12  8.71908E+04  0.00000E+00  1.0E-05
  9.500E-03  6.87293E-09  2.43389E-12  8.69156E+04  0.00000E+00  1.0E-05
  9.750E-03  7.23942E-09  2.42602E-12  8.66346E+04  0.00000E+00  1.0E-05
  1.000E-02  7.61544E-09  2.41798E-12  8.63478E+04  0.00000E+00  1.0E-05
  1.250E-02  1.18991E-08  2.32945E-12  8.31860E+04  0.00000E+00  1.0E-05
  1.500E-02  1.71347E-08  2.22823E-12  7.95715E+04  0.00000E+00  1.0E-05
  1.750E-02  2.33223E-08  2.11756E-12  7.56196E+04  0.00000E+00  1.0E-05
  2.000E-02  3.04617E-08  2.00068E-12  7.14455E+04  0.00000E+00  1.0E-05
  2.250E-02  3.85531E-08  1.88066E-12  6.71597E+04  0.00000E+00  1.0E-05
  2.500E-02  4.75965E-08  1.76020E-12  6.28577E+04  0.00000E+00  1.0E-05
  2.750E-02  5.75917E-08  1.64145E-12  5.86172E+04  0.00000E+00  1.0E-05
  3.000E-02  6.85389E-08  1.52620E-12  5.45017E+04  0.00000E+00  1.0E-05
  3.250E-02  8.04380E-08  1.41590E-12  5.05626E+04  0.00000E+00  1.0E-05
  3.500E-02  9.32891E-08  1.31152E-12  4.68353E+04  0.00000E+00  1.0E-05
  3.750E-02  1.07092E-07  1.21352E-12  4.33356E+04  0.00000E+00  1.0E-05
  4.000E-02  1.21847E-07  1.12218E-12  4.00739E+04  0.00000E+00  1.0E-05
  4.250E-02  1.37554E-07  1.03761E-12  3.70537E+04  0.00000E+00  1.0E-05
  4.500E-02  1.54213E-07  9.59749E-13  3.42733E+04  0.00000E+00  1.0E-05
  4.750E-02  1.71823E-07  8.88200E-13  3.17182E+04  0.00000E+00  1.0E-05
  5.000E-02  1.90386E-07  8.22634E-13  2.93768E+04  0.00000E+00  1.0E-05
  5.250E-02  2.09900E-07  7.62675E-13  2.72356E+04  0.00000E+00  1.0E-05
  5.500E-02  2.30367E-07  7.07953E-13  2.52815E+04  0.00000E+00  1.0E-05
  5.750E-02  2.51785E-07  6.57964E-13  2.34963E+04  0.00000E+00  1.0E-05
  6.000E-02  2.74156E-07  6.12311E-13  2.18660E+04  0.00000E+00  1.0E-05
  6.250E-02  2.97478E-07  5.70614E-13  2.03770E+04  0.00000E+00  1.0E-05
  6.500E-02  3.21752E-07  5.32478E-13  1.90151E+04  0.00000E+00  1.0E-05
  6.750E-02  3.46978E-07  4.97561E-13  1.77682E+04  0.00000E+00  1.0E-05
  7.000E-02  3.73156E-07  4.65567E-13  1.66257E+04  0.00000E+00  1.0E-05
  7.250E-02  4.00286E-07  4.36218E-13  1.55776E+04  0.00000E+00  1.0E-05
  7.500E-02  4.28368E-07  4.09215E-13  1.46133E+04  0.00000E+00  1.0E-05
  7.750E-02  4.57402E-07  3.84337E-13  1.37249E+04  0.00000E+00  1.0E-05
  8.000E-02  4.87388E-07  3.61408E-13  1.29061E+04  0.00000E+00  1.0E-05
  8.250E-02  5.18325E-07  3.40247E-13  1.21505E+04  0.00000E+00  1.0E-05
  8.500E-02  5.50215E-07  3.20656E-13  1.14508E+04  0.00000E+00  1.0E-05
  8.750E-02  5.83057E-07  3.02474E-13  1.08015E+04  0.00000E+00  1.0E-05
  9.000E-02  6.16850E-07  2.85617E-13  1.01996E+04  0.00000E+00  1.0E-05
  9.250E-02  6.51596E-07  2.69968E-13  9.64072E+03  0.00000E+00  1.0E-05
  9.500E-02  6.87293E-07  2.55405E-13  9.12067E+03  0.00000E+00  1.0E-05
  9.750E-02  7.23942E-07  2.41797E-13  8.63472E+03  0.00000E+00  1.0E-05
  1.000E-01  7.61543E-07  2.29116E-13  8.18188E+03  0.00000E+00  1.0E-05
  1.250E-01  1.18991E-06  1.39093E-13  4.96710E+03  0.00000E+00  1.0E-05
  1.500E-01  1.71347E-06  8.88172E-14  3.17172E+03  0.00000E+00  1.0E-05
  1.750E-01  2.33223E-06  6.03246E-14  2.15423E+03  0.00000E+00  1.0E-05
  2.000E-01  3.04617E-06  4.27021E-14  1.52492E+03  0.00000E+00  1.0E-05
  2.250E-01  3.85531E-06  3.10523E-14  1.10890E+03  0.00000E+00  1.0E-05
  2.500E-01  4.75964E-06  2.31416E-14  8.26400E+02  0.00000E+00  1.0E-05
  2.750E-01  5.75916E-06  1.76477E-14  6.30212E+02  0.00000E+00  1.0E-05
  3.000E-01  6.85388E-06  1.37133E-14  4.89710E+02  0.00000E+00  1.0E-05
  3.250E-01  8.04378E-06  1.08074E-14  3.85940E+02  0.00000E+00  1.0E-05
  3.500E-01  9.32888E-06  8.62750E-15  3.08094E+02  0.00000E+00  1.0E-05
  3.750E-01  1.07092E-05  6.98369E-15  2.49392E+02  0.00000E+00  1.0E-05
  4.000E-01  1.21846E-05  5.72205E-15  2.04338E+02  0.00000E+00  1.0E-05
  4.250E-01  1.37553E-05  4.73654E-15  1.69145E+02  0.00000E+00  1.0E-05
  4.500E-01  1.54212E-05  3.95235E-15  1.41141E+02  0.00000E+00  1.0E-05
  4.750E-01  1.71822E-05  3.32720E-15  1.18817E+02  0.00000E+00  1.0E-05
  5.000E-01  1.90385E-05  2.82074E-15  1.00730E+02  0.00000E+00  1.0E-05
  5.250E-01  2.09899E-05  2.41141E-15  8.61129E+01  0.00000E+00  1.0E-05
  5.500E-01  2.30365E-05  2.07044E-15  7.39368E+01  0.00000E+00  1.0E-05
  5.750E-01  2.51783E-05  1.78729E-15  6.38252E+01  0.00000E+00  1.0E-05
  6.000E-01  2.74153E-05  1.55045E-15  5.53677E+01  0.00000E+00  1.0E-05
  6.250E-01  2.97475E-05  1.35127E-15  4.82547E+01  0.00000E+00  1.0E-05
  6.500E-01  3.21749E-05  1.18258E-15  4.22307E+01  0.00000E+00  1.0E-05
  6.750E-01  3.46974E-05  1.03854E-15  3.70869E+01  0.00000E+00  1.0E-05
  7.000E-01  3.73152E-05  9.15749E-16  3.27020E+01  0.00000E+00  1.0E-05
  7.250E-01  4.00281E-05  8.10813E-16  2.89547E+01  0.00000E+00  1.0E-05
  7.500E-01  4.28362E-05  7.20488E-16  2.57291E+01  0.00000E+00  1.0E-05
  7.750E-01  4.57395E-05  6.42495E-16  2.29439E+01  0.00000E+00  1.0E-05
  8.000E-01  4.87380E-05  5.74917E-16  2.05307E+01  0.00000E+00  1.0E-05
  8.250E-01  5.18317E-05  5.16093E-16  1.84300E+01  0.00000E+00  1.0E-05
  8.500E-01  5.50205E-05  4.64597E-16  1.65911E+01  0.00000E+00  1.0E-05
  8.750E-01  5.83045E-05  4.19341E-16  1.49749E+01  0.00000E+00  1.0E-05
  9.000E-01  6.16838E-05  3.79526E-16  1.35531E+01  0.00000E+00  1.0E-05
  9.250E-01  6.51582E-05  3.44384E-16  1.22982E+01  0.00000E+00  1.0E-05
  9.500E-01  6.87277E-05  3.13246E-16  1.11862E+01  0.00000E+00  1.0E-05
  9.750E-01  7.23925E-05  2.85540E-16  1.01968E+01  0.00000E+00  1.0E-05
  1.000E+00  7.61524E-05  2.60874E-16  9.31596E+00  0.00000E+00  1.1E-05
  1.100E+00  9.21439E-05  1.85487E-16  6.62387E+00  0.00000E+00  8.6E-06
  1.200E+00  1.09658E-04  1.35616E-16  4.84294E+00  0.00000E+00  4.7E-06
  1.300E+00  1.28695E-04  1.01463E-16  3.62330E+00  0.00000E+00  9.5E-07
  1.400E+00  1.49255E-04  7.73790E-17  2.76325E+00  0.00000E+00  1.8E-06
  1.500E+00  1.71338E-04  6.01067E-17  2.14645E+00  0.00000E+00  3.3E-06
  1.600E+00  1.94942E-04  4.74280E-17  1.69368E+00  0.00000E+00  3.6E-06
  1.700E+00  2.20070E-04  3.79357E-17  1.35471E+00  0.00000E+00  2.8E-06
  1.800E+00  2.46720E-04  3.07005E-17  1.09633E+00  0.00000E+00  1.6E-06
  1.900E+00  2.74892E-04  2.51258E-17  8.97260E-01  0.00000E+00  2.7E-07
  2.000E+00  3.04586E-04  2.07692E-17  7.41682E-01  0.00000E+00  8.3E-07
  2.100E+00  3.35803E-04  1.73224E-17  6.18593E-01  0.00000E+00  1.5E-06
  2.200E+00  3.68542E-04  1.45561E-17  5.19809E-01  0.00000E+00  1.6E-06
  2.300E+00  4.02802E-04  1.23230E-17  4.40062E-01  0.00000E+00  1.3E-06
  2.400E+00  4.38585E-04  1.05032E-17  3.75078E-01  0.00000E+00  7.3E-07
  2.500E+00  4.75889E-04  9.00751E-18  3.21664E-01  0.00000E+00  1.0E-07
  2.600E+00  5.14715E-04  7.76663E-18  2.77351E-01  0.00000E+00  4.7E-07
  2.700E+00  5.55063E-04  6.73199E-18  2.40404E-01  0.00000E+00  8.1E-07
  2.800E+00  5.96931E-04  5.86427E-18  2.09417E-01  0.00000E+00  8.8E-07
  2.900E+00  6.40321E-04  5.13208E-18  1.83270E-01  0.00000E+00  7.1E-07
  3.000E+00  6.85233E-04  4.51005E-18  1.61057E-01  0.00000E+00  3.9E-07
  3.100E+00  7.31665E-04  3.97939E-18  1.42106E-01  0.00000E+00  1.0E-07
  3.200E+00  7.79618E-04  3.52473E-18  1.25870E-01  0.00000E+00  3.1E-07
  3.300E+00  8.29092E-04  3.13340E-18  1.11896E-01  0.00000E+00  5.0E-07
  3.400E+00  8.80086E-04  2.79485E-18  9.98058E-02  0.00000E+00  5.4E-07
  3.500E+00  9.32601E-04  2.50083E-18  8.93063E-02  0.00000E+00  4.3E-07
  3.600E+00  9.86636E-04  2.24467E-18  8.01585E-02  0.00000E+00  2.3E-07
  3.700E+00  1.04219E-03  2.02062E-18  7.21577E-02  0.00000E+00  1.0E-07
  3.800E+00  1.09927E-03  1.82395E-18  6.51344E-02  0.00000E+00  2.1E-07
  3.900E+00  1.15786E-03  1.65064E-18  5.89454E-02  0.00000E+00  3.4E-07
  4.000E+00  1.21797E-03  1.49755E-18  5.34786E-02  0.00000E+00  3.6E-07
  4.100E+00  1.27961E-03  1.36191E-18  4.86347E-02  0.00000E+00  2.8E-07
  4.200E+00  1.34276E-03  1.24137E-18  4.43300E-02  0.00000E+00  1.4E-07
  4.300E+00  1.40743E-03  1.13386E-18  4.04910E-02  0.00000E+00  1.0E-07
  4.400E+00  1.47362E-03  1.03782E-18  3.70612E-02  0.00000E+00  1.6E-07
  4.500E+00  1.54133E-03  9.51790E-19  3.39890E-02  0.00000E+00  2.4E-07
  4.600E+00  1.61056E-03  8.74540E-19  3.12304E-02  0.00000E+00  2.5E-07
  4.700E+00  1.68131E-03  8.04970E-19  2.87460E-02  0.00000E+00  1.9E-07
  4.800E+00  1.75357E-03  7.42216E-19  2.65050E-02  0.00000E+00  1.0E-07
  4.900E+00  1.82735E-03  6.85489E-19  2.44792E-02  0.00000E+00  1.0E-07
  5.000E+00  1.90265E-03  6.34105E-19  2.26443E-02  0.00000E+00  1.2E-07
  5.100E+00  1.97947E-03  5.87452E-19  2.09783E-02  0.00000E+00  1.8E-07
  5.200E+00  2.05780E-03  5.45021E-19  1.94631E-02  0.00000E+00  1.8E-07
  5.300E+00  2.13765E-03  5.06371E-19  1.80828E-02  0.00000E+00  1.4E-07
  5.400E+00  2.21902E-03  4.71101E-19  1.68233E-02  0.00000E+00  1.0E-07
  5.500E+00  2.30190E-03  4.38855E-19  1.56718E-02  0.00000E+00  1.0E-07
  5.600E+00  2.38630E-03  4.09322E-19  1.46171E-02  0.00000E+00  1.0E-07
  5.700E+00  2.47222E-03  3.82243E-19  1.36501E-02  0.00000E+00  1.4E-07
  5.800E+00  2.55965E-03  3.57376E-19  1.27621E-02  0.00000E+00  1.4E-07
  5.900E+00  2.64859E-03  3.34502E-19  1.19453E-02  0.00000E+00  1.0E-07
  6.000E+00  2.73905E-03  3.13430E-19  1.11928E-02  0.00000E+00  1.0E-07
  6.100E+00  2.83103E-03  2.93997E-19  1.04988E-02  0.00000E+00  1.0E-07
  6.200E+00  2.92452E-03  2.76053E-19  9.85805E-03  0.00000E+00  1.0E-07
  6.300E+00  3.01952E-03  2.59462E-19  9.26557E-03  0.00000E+00  1.1E-07
  6.400E+00  3.11604E-03  2.44098E-19  8.71690E-03  0.00000E+00  1.1E-07
  6.500E+00  3.21407E-03  2.29859E-19  8.20840E-03  0.00000E+00  1.0E-07
  6.600E+00  3.31362E-03  2.16647E-19  7.73660E-03  0.00000E+00  1.0E-07
  6.700E+00  3.41468E-03  2.04375E-19  7.29836E-03  0.00000E+00  1.0E-07
  6.800E+00  3.51725E-03  1.92959E-19  6.89069E-03  0.00000E+00  1.0E-07
  6.900E+00  3.62133E-03  1.82332E-19  6.51121E-03  0.00000E+00  1.0E-07
  7.000E+00  3.72692E-03  1.72430E-19  6.15760E-03  0.00000E+00  1.0E-07
  7.100E+00  3.83403E-03  1.63195E-19  5.82779E-03  0.00000E+00  1.0E-07
  7.200E+00  3.94265E-03  1.54570E-19  5.51979E-03  0.00000E+00  1.0E-07
  7.300E+00  4.05278E-03  1.46509E-19  5.23194E-03  0.00000E+00  1.0E-07
  7.400E+00  4.16442E-03  1.38970E-19  4.96271E-03  0.00000E+00  1.0E-07
  7.500E+00  4.27757E-03  1.31912E-19  4.71067E-03  0.00000E+00  1.0E-07
  7.600E+00  4.39223E-03  1.25298E-19  4.47447E-03  0.00000E+00  1.0E-07
  7.700E+00  4.50840E-03  1.19094E-19  4.25294E-03  0.00000E+00  1.0E-07
  7.800E+00  4.62608E-03  1.13272E-19  4.04502E-03  0.00000E+00  1.0E-07
  7.900E+00  4.74527E-03  1.07804E-19  3.84974E-03  0.00000E+00  1.0E-07
  8.000E+00  4.86597E-03  1.02663E-19  3.66615E-03  0.00000E+00  1.0E-07
  8.100E+00  4.98817E-03  9.78255E-20  3.49341E-03  0.00000E+00  1.0E-07
  8.200E+00  5.11188E-03  9.32718E-20  3.33080E-03  0.00000E+00  1.0E-07
  8.300E+00  5.23711E-03  8.89818E-20  3.17760E-03  0.00000E+00  1.0E-07
  8.400E+00  5.36383E-03  8.49370E-20  3.03316E-03  0.00000E+00  1.0E-07
  8.500E+00  5.49207E-03  8.11204E-20  2.89686E-03  0.00000E+00  1.0E-07
  8.600E+00  5.62181E-03  7.75174E-20  2.76820E-03  0.00000E+00  1.0E-07
  8.700E+00  5.75306E-03  7.41137E-20  2.64665E-03  0.00000E+00  1.0E-07
  8.800E+00  5.88581E-03  7.08961E-20  2.53175E-03  0.00000E+00  1.0E-07
  8.900E+00  6.02007E-03  6.78521E-20  2.42304E-03  0.00000E+00  1.0E-07
  9.000E+00  6.15583E-03  6.49711E-20  2.32016E-03  0.00000E+00  1.0E-07
  9.100E+00  6.29310E-03  6.22426E-20  2.22272E-03  0.00000E+00  1.0E-07
  9.200E+00  6.43187E-03  5.96571E-20  2.13039E-03  0.00000E+00  1.0E-07
  9.300E+00  6.57214E-03  5.72052E-20  2.04284E-03  0.00000E+00  1.0E-07
  9.400E+00  6.71392E-03  5.48792E-20  1.95977E-03  0.00000E+00  1.0E-07
  9.500E+00  6.85720E-03  5.26712E-20  1.88092E-03  0.00000E+00  1.0E-07
  9.600E+00  7.00198E-03  5.05742E-20  1.80604E-03  0.00000E+00  1.0E-07
  9.700E+00  7.14827E-03  4.85814E-20  1.73487E-03  0.00000E+00  1.0E-07
  9.800E+00  7.29605E-03  4.66866E-20  1.66721E-03  0.00000E+00  1.0E-07
  9.900E+00  7.44534E-03  4.48843E-20  1.60285E-03  0.00000E+00  1.0E-07
  1.000E+01  7.59612E-03  4.31690E-20  1.54159E-03  0.00000E+00  1.0E-07
  1.025E+01  7.97965E-03  3.92293E-20  1.40090E-03  0.00000E+00  1.0E-07
  1.050E+01  8.37255E-03  3.57333E-20  1.27606E-03  0.00000E+00  1.0E-07
  1.075E+01  8.77480E-03  3.26222E-20  1.16496E-03  0.00000E+00  1.0E-07
  1.100E+01  9.18641E-03  2.98463E-20  1.06583E-03  0.00000E+00  1.0E-07
  1.125E+01  9.60736E-03  2.73629E-20  9.77145E-04  0.00000E+00  1.0E-07
  1.150E+01  1.00376E-02  2.51357E-20  8.97610E-04  0.00000E+00  1.0E-07
  1.175E+01  1.04773E-02  2.31335E-20  8.26111E-04  0.00000E+00  1.0E-07
  1.200E+01  1.09262E-02  2.13295E-20  7.61690E-04  0.00000E+00  1.0E-07
  1.225E+01  1.13844E-02  1.97005E-20  7.03517E-04  0.00000E+00  1.0E-07
  1.250E+01  1.18520E-02  1.82264E-20  6.50878E-04  0.00000E+00  1.0E-07
  1.275E+01  1.23288E-02  1.68899E-20  6.03149E-04  0.00000E+00  1.0E-07
  1.300E+01  1.28150E-02  1.56756E-20  5.59787E-04  0.00000E+00  1.0E-07
  1.325E+01  1.33104E-02  1.45704E-20  5.20317E-04  0.00000E+00  1.0E-07
  1.350E+01  1.38150E-02  1.35627E-20  4.84333E-04  0.00000E+00  1.0E-07
  1.375E+01  1.43290E-02  1.26422E-20  4.51463E-04  0.00000E+00  1.0E-07
  1.400E+01  1.48521E-02  1.18001E-20  4.21388E-04  0.00000E+00  1.0E-07
  1.425E+01  1.53845E-02  1.10283E-20  3.93828E-04  0.00000E+00  1.0E-07
  1.450E+01  1.59262E-02  1.03200E-20  3.68533E-04  0.00000E+00  1.0E-07
  1.475E+01  1.64770E-02  9.66882E-21  3.45280E-04  0.00000E+00  1.0E-07
  1.500E+01  1.70371E-02  9.06937E-21  3.23873E-04  0.00000E+00  1.0E-07
  1.525E+01  1.76063E-02  8.51677E-21  3.04139E-04  0.00000E+00  1.0E-07
