 #
 # Subroutine ELSEPA. Elastic scattering of electrons and positrons
 #                    by neutral atoms and positive ions
 #
 # Projectile: electron
 # Kinetic energy = 3.70000E+06 eV = 1.35973E+05 a.u.
 #
 # WARNING: High-energy factorization with free-atom DF screening.
 #          Absorption, polarization and exchange corrections are
 #          switched off.
 #          Phase shifts are calculated for the bare nucleus.
 #          Scattering amplitudes are not evaluated.
 #
 # Element:  Y,  Z =  39,  atomic weight = 8.89059E+01 g/mol
 #
 # Nuclear model: Fermi distribution
 #                Average radius = 4.77559E-13 cm
 #                Skin thickness = 5.46000E-14 cm
 #
 # Number of electrons = 39
 #
 # Total elastic cross section = 4.00414E-18 cm**2 = 1.42990E-01 a0**2
 # 1st transport cross section = 1.32300E-22 cm**2 = 4.72453E-06 a0**2
 # 2nd transport cross section = 3.70987E-22 cm**2 = 1.32482E-05 a0**2
 #
 #
 # Differential cross section:                       MU=(1-COS(THETA))/2
 #
 #  THETA        MU          DCS          DCS        Sherman      error
 #  (deg)                 (cm**2/sr)   (a0**2/sr)    function
 #----------------------------------------------------------------------
  0.000E+00  0.00000E+00  1.07241E-12  3.82963E+04  0.00000E+00  1.0E-05
  1.000E-04  7.61557E-13  1.07240E-12  3.82960E+04  0.00000E+00  1.0E-05
  1.250E-04  1.18994E-12  1.07239E-12  3.82958E+04  0.00000E+00  1.0E-05
  1.500E-04  1.71346E-12  1.07239E-12  3.82956E+04  0.00000E+00  1.0E-05
  1.750E-04  2.33225E-12  1.07238E-12  3.82953E+04  0.00000E+00  1.0E-05
  2.000E-04  3.04617E-12  1.07237E-12  3.82950E+04  0.00000E+00  1.0E-05
  2.250E-04  3.85530E-12  1.07236E-12  3.82947E+04  0.00000E+00  1.0E-05
  2.500E-04  4.75964E-12  1.07235E-12  3.82943E+04  0.00000E+00  1.0E-05
  2.750E-04  5.75917E-12  1.07234E-12  3.82939E+04  0.00000E+00  1.0E-05
  3.000E-04  6.85391E-12  1.07233E-12  3.82935E+04  0.00000E+00  1.0E-05
  3.250E-04  8.04379E-12  1.07231E-12  3.82930E+04  0.00000E+00  1.0E-05
  3.500E-04  9.32893E-12  1.07230E-12  3.82924E+04  0.00000E+00  1.0E-05
  3.750E-04  1.07092E-11  1.07228E-12  3.82919E+04  0.00000E+00  1.0E-05
  4.000E-04  1.21847E-11  1.07226E-12  3.82913E+04  0.00000E+00  1.0E-05
  4.250E-04  1.37554E-11  1.07225E-12  3.82906E+04  0.00000E+00  1.0E-05
  4.500E-04  1.54213E-11  1.07223E-12  3.82899E+04  0.00000E+00  1.0E-05
  4.750E-04  1.71823E-11  1.07221E-12  3.82892E+04  0.00000E+00  1.0E-05
  5.000E-04  1.90386E-11  1.07218E-12  3.82884E+04  0.00000E+00  1.0E-05
  5.250E-04  2.09900E-11  1.07216E-12  3.82876E+04  0.00000E+00  1.0E-05
  5.500E-04  2.30367E-11  1.07214E-12  3.82868E+04  0.00000E+00  1.0E-05
  5.750E-04  2.51785E-11  1.07211E-12  3.82859E+04  0.00000E+00  1.0E-05
  6.000E-04  2.74156E-11  1.07209E-12  3.82849E+04  0.00000E+00  1.0E-05
  6.250E-04  2.97478E-11  1.07206E-12  3.82840E+04  0.00000E+00  1.0E-05
  6.500E-04  3.21752E-11  1.07203E-12  3.82830E+04  0.00000E+00  1.0E-05
  6.750E-04  3.46979E-11  1.07200E-12  3.82819E+04  0.00000E+00  1.0E-05
  7.000E-04  3.73157E-11  1.07197E-12  3.82808E+04  0.00000E+00  1.0E-05
  7.250E-04  4.00286E-11  1.07194E-12  3.82797E+04  0.00000E+00  1.0E-05
  7.500E-04  4.28368E-11  1.07191E-12  3.82786E+04  0.00000E+00  1.0E-05
  7.750E-04  4.57402E-11  1.07188E-12  3.82774E+04  0.00000E+00  1.0E-05
  8.000E-04  4.87388E-11  1.07184E-12  3.82761E+04  0.00000E+00  1.0E-05
  8.250E-04  5.18325E-11  1.07180E-12  3.82748E+04  0.00000E+00  1.0E-05
  8.500E-04  5.50215E-11  1.07177E-12  3.82735E+04  0.00000E+00  1.0E-05
  8.750E-04  5.83057E-11  1.07173E-12  3.82721E+04  0.00000E+00  1.0E-05
  9.000E-04  6.16850E-11  1.07169E-12  3.82707E+04  0.00000E+00  1.0E-05
  9.250E-04  6.51595E-11  1.07165E-12  3.82693E+04  0.00000E+00  1.0E-05
  9.500E-04  6.87293E-11  1.07161E-12  3.82678E+04  0.00000E+00  1.0E-05
  9.750E-04  7.23943E-11  1.07157E-12  3.82663E+04  0.00000E+00  1.0E-05
  1.000E-03  7.61544E-11  1.07152E-12  3.82648E+04  0.00000E+00  1.0E-05
  1.250E-03  1.18991E-10  1.07103E-12  3.82470E+04  0.00000E+00  1.0E-05
  1.500E-03  1.71347E-10  1.07042E-12  3.82254E+04  0.00000E+00  1.0E-05
  1.750E-03  2.33223E-10  1.06970E-12  3.81998E+04  0.00000E+00  1.0E-05
  2.000E-03  3.04617E-10  1.06888E-12  3.81703E+04  0.00000E+00  1.0E-05
  2.250E-03  3.85531E-10  1.06794E-12  3.81369E+04  0.00000E+00  1.0E-05
  2.500E-03  4.75965E-10  1.06690E-12  3.80997E+04  0.00000E+00  1.0E-05
  2.750E-03  5.75917E-10  1.06575E-12  3.80585E+04  0.00000E+00  1.0E-05
  3.000E-03  6.85389E-10  1.06449E-12  3.80136E+04  0.00000E+00  1.0E-05
  3.250E-03  8.04380E-10  1.06312E-12  3.79648E+04  0.00000E+00  1.0E-05
  3.500E-03  9.32891E-10  1.06165E-12  3.79123E+04  0.00000E+00  1.0E-05
  3.750E-03  1.07092E-09  1.06007E-12  3.78559E+04  0.00000E+00  1.0E-05
  4.000E-03  1.21847E-09  1.05839E-12  3.77959E+04  0.00000E+00  1.0E-05
  4.250E-03  1.37554E-09  1.05661E-12  3.77321E+04  0.00000E+00  1.0E-05
  4.500E-03  1.54213E-09  1.05472E-12  3.76646E+04  0.00000E+00  1.0E-05
  4.750E-03  1.71823E-09  1.05272E-12  3.75935E+04  0.00000E+00  1.0E-05
  5.000E-03  1.90386E-09  1.05063E-12  3.75187E+04  0.00000E+00  1.0E-05
  5.250E-03  2.09900E-09  1.04844E-12  3.74404E+04  0.00000E+00  1.0E-05
  5.500E-03  2.30367E-09  1.04614E-12  3.73585E+04  0.00000E+00  1.0E-05
  5.750E-03  2.51785E-09  1.04375E-12  3.72731E+04  0.00000E+00  1.0E-05
  6.000E-03  2.74156E-09  1.04126E-12  3.71842E+04  0.00000E+00  1.0E-05
  6.250E-03  2.97478E-09  1.03868E-12  3.70919E+04  0.00000E+00  1.0E-05
  6.500E-03  3.21752E-09  1.03600E-12  3.69962E+04  0.00000E+00  1.0E-05
  6.750E-03  3.46978E-09  1.03322E-12  3.68971E+04  0.00000E+00  1.0E-05
  7.000E-03  3.73156E-09  1.03036E-12  3.67947E+04  0.00000E+00  1.0E-05
  7.250E-03  4.00286E-09  1.02740E-12  3.66891E+04  0.00000E+00  1.0E-05
  7.500E-03  4.28368E-09  1.02435E-12  3.65803E+04  0.00000E+00  1.0E-05
  7.750E-03  4.57402E-09  1.02121E-12  3.64682E+04  0.00000E+00  1.0E-05
  8.000E-03  4.87388E-09  1.01799E-12  3.63531E+04  0.00000E+00  1.0E-05
  8.250E-03  5.18326E-09  1.01468E-12  3.62349E+04  0.00000E+00  1.0E-05
  8.500E-03  5.50215E-09  1.01129E-12  3.61137E+04  0.00000E+00  1.0E-05
  8.750E-03  5.83057E-09  1.00781E-12  3.59895E+04  0.00000E+00  1.0E-05
  9.000E-03  6.16850E-09  1.00425E-12  3.58625E+04  0.00000E+00  1.0E-05
  9.250E-03  6.51596E-09  1.00061E-12  3.57325E+04  0.00000E+00  1.0E-05
  9.500E-03  6.87293E-09  9.96895E-13  3.55998E+04  0.00000E+00  1.0E-05
  9.750E-03  7.23942E-09  9.93101E-13  3.54643E+04  0.00000E+00  1.0E-05
  1.000E-02  7.61544E-09  9.89231E-13  3.53261E+04  0.00000E+00  1.0E-05
  1.250E-02  1.18991E-08  9.46753E-13  3.38091E+04  0.00000E+00  1.0E-05
  1.500E-02  1.71347E-08  8.98661E-13  3.20918E+04  0.00000E+00  1.0E-05
  1.750E-02  2.33223E-08  8.46542E-13  3.02306E+04  0.00000E+00  1.0E-05
  2.000E-02  3.04617E-08  7.92062E-13  2.82850E+04  0.00000E+00  1.0E-05
  2.250E-02  3.85531E-08  7.36864E-13  2.63139E+04  0.00000E+00  1.0E-05
  2.500E-02  4.75965E-08  6.82229E-13  2.43628E+04  0.00000E+00  1.0E-05
  2.750E-02  5.75917E-08  6.29092E-13  2.24653E+04  0.00000E+00  1.0E-05
  3.000E-02  6.85389E-08  5.78235E-13  2.06491E+04  0.00000E+00  1.0E-05
  3.250E-02  8.04380E-08  5.30335E-13  1.89386E+04  0.00000E+00  1.0E-05
  3.500E-02  9.32891E-08  4.85790E-13  1.73479E+04  0.00000E+00  1.0E-05
  3.750E-02  1.07092E-07  4.44589E-13  1.58766E+04  0.00000E+00  1.0E-05
  4.000E-02  1.21847E-07  4.06766E-13  1.45259E+04  0.00000E+00  1.0E-05
  4.250E-02  1.37554E-07  3.72303E-13  1.32952E+04  0.00000E+00  1.0E-05
  4.500E-02  1.54213E-07  3.41157E-13  1.21829E+04  0.00000E+00  1.0E-05
  4.750E-02  1.71823E-07  3.12947E-13  1.11755E+04  0.00000E+00  1.0E-05
  5.000E-02  1.90386E-07  2.87461E-13  1.02654E+04  0.00000E+00  1.0E-05
  5.250E-02  2.09900E-07  2.64481E-13  9.44478E+03  0.00000E+00  1.0E-05
  5.500E-02  2.30367E-07  2.43872E-13  8.70883E+03  0.00000E+00  1.0E-05
  5.750E-02  2.51785E-07  2.25277E-13  8.04478E+03  0.00000E+00  1.0E-05
  6.000E-02  2.74156E-07  2.08495E-13  7.44550E+03  0.00000E+00  1.0E-05
  6.250E-02  2.97478E-07  1.93341E-13  6.90435E+03  0.00000E+00  1.0E-05
  6.500E-02  3.21752E-07  1.79668E-13  6.41605E+03  0.00000E+00  1.0E-05
  6.750E-02  3.46978E-07  1.67273E-13  5.97342E+03  0.00000E+00  1.0E-05
  7.000E-02  3.73156E-07  1.56014E-13  5.57135E+03  0.00000E+00  1.0E-05
  7.250E-02  4.00286E-07  1.45769E-13  5.20550E+03  0.00000E+00  1.0E-05
  7.500E-02  4.28368E-07  1.36427E-13  4.87189E+03  0.00000E+00  1.0E-05
  7.750E-02  4.57402E-07  1.27880E-13  4.56667E+03  0.00000E+00  1.0E-05
  8.000E-02  4.87388E-07  1.20045E-13  4.28688E+03  0.00000E+00  1.0E-05
  8.250E-02  5.18325E-07  1.12849E-13  4.02991E+03  0.00000E+00  1.0E-05
  8.500E-02  5.50215E-07  1.06219E-13  3.79314E+03  0.00000E+00  1.0E-05
  8.750E-02  5.83057E-07  1.00090E-13  3.57427E+03  0.00000E+00  1.0E-05
  9.000E-02  6.16850E-07  9.44220E-14  3.37187E+03  0.00000E+00  1.0E-05
  9.250E-02  6.51596E-07  8.91719E-14  3.18439E+03  0.00000E+00  1.0E-05
  9.500E-02  6.87293E-07  8.42951E-14  3.01023E+03  0.00000E+00  1.0E-05
  9.750E-02  7.23942E-07  7.97440E-14  2.84771E+03  0.00000E+00  1.0E-05
  1.000E-01  7.61543E-07  7.55055E-14  2.69635E+03  0.00000E+00  1.0E-05
  1.250E-01  1.18991E-06  4.53579E-14  1.61976E+03  0.00000E+00  1.0E-05
  1.500E-01  1.71347E-06  2.83610E-14  1.01279E+03  0.00000E+00  1.0E-05
  1.750E-01  2.33223E-06  1.88219E-14  6.72144E+02  0.00000E+00  1.0E-05
  2.000E-01  3.04617E-06  1.30200E-14  4.64951E+02  0.00000E+00  1.0E-05
  2.250E-01  3.85531E-06  9.31761E-15  3.32738E+02  0.00000E+00  1.0E-05
  2.500E-01  4.75964E-06  6.88891E-15  2.46007E+02  0.00000E+00  1.0E-05
  2.750E-01  5.75916E-06  5.23820E-15  1.87060E+02  0.00000E+00  1.0E-05
  3.000E-01  6.85388E-06  4.07271E-15  1.45439E+02  0.00000E+00  1.0E-05
  3.250E-01  8.04378E-06  3.21568E-15  1.14834E+02  0.00000E+00  1.0E-05
  3.500E-01  9.32888E-06  2.56734E-15  9.16815E+01  0.00000E+00  1.0E-05
  3.750E-01  1.07092E-05  2.07358E-15  7.40489E+01  0.00000E+00  1.0E-05
  4.000E-01  1.21846E-05  1.69079E-15  6.03794E+01  0.00000E+00  1.0E-05
  4.250E-01  1.37553E-05  1.38873E-15  4.95923E+01  0.00000E+00  1.0E-05
  4.500E-01  1.54212E-05  1.14645E-15  4.09404E+01  0.00000E+00  1.0E-05
  4.750E-01  1.71822E-05  9.53390E-16  3.40462E+01  0.00000E+00  1.0E-05
  5.000E-01  1.90385E-05  7.98002E-16  2.84972E+01  0.00000E+00  1.0E-05
  5.250E-01  2.09899E-05  6.72288E-16  2.40078E+01  0.00000E+00  1.0E-05
  5.500E-01  2.30365E-05  5.69011E-16  2.03197E+01  0.00000E+00  1.0E-05
  5.750E-01  2.51783E-05  4.84539E-16  1.73032E+01  0.00000E+00  1.0E-05
  6.000E-01  2.74153E-05  4.14964E-16  1.48186E+01  0.00000E+00  1.0E-05
  6.250E-01  2.97475E-05  3.57317E-16  1.27600E+01  0.00000E+00  1.0E-05
  6.500E-01  3.21749E-05  3.09214E-16  1.10422E+01  0.00000E+00  1.0E-05
  6.750E-01  3.46974E-05  2.68919E-16  9.60326E+00  0.00000E+00  1.0E-05
  7.000E-01  3.73152E-05  2.35030E-16  8.39308E+00  0.00000E+00  1.0E-05
  7.250E-01  4.00281E-05  2.06386E-16  7.37018E+00  0.00000E+00  1.0E-05
  7.500E-01  4.28362E-05  1.82025E-16  6.50024E+00  0.00000E+00  1.0E-05
  7.750E-01  4.57395E-05  1.61213E-16  5.75700E+00  0.00000E+00  1.0E-05
  8.000E-01  4.87380E-05  1.43347E-16  5.11902E+00  0.00000E+00  1.0E-05
  8.250E-01  5.18317E-05  1.27935E-16  4.56865E+00  0.00000E+00  1.0E-05
  8.500E-01  5.50205E-05  1.14571E-16  4.09140E+00  0.00000E+00  1.0E-05
  8.750E-01  5.83045E-05  1.02929E-16  3.67568E+00  0.00000E+00  1.0E-05
  9.000E-01  6.16838E-05  9.27569E-17  3.31241E+00  0.00000E+00  1.0E-05
  9.250E-01  6.51582E-05  8.38337E-17  2.99376E+00  0.00000E+00  1.0E-05
  9.500E-01  6.87277E-05  7.59749E-17  2.71311E+00  0.00000E+00  1.0E-05
  9.750E-01  7.23925E-05  6.90236E-17  2.46488E+00  0.00000E+00  1.0E-05
  1.000E+00  7.61524E-05  6.28624E-17  2.24486E+00  0.00000E+00  3.7E-06
  1.100E+00  9.21439E-05  4.41915E-17  1.57811E+00  0.00000E+00  2.9E-06
  1.200E+00  1.09658E-04  3.19926E-17  1.14248E+00  0.00000E+00  1.6E-06
  1.300E+00  1.28695E-04  2.37227E-17  8.47153E-01  0.00000E+00  4.2E-07
  1.400E+00  1.49255E-04  1.79363E-17  6.40518E-01  0.00000E+00  5.4E-07
  1.500E+00  1.71338E-04  1.38122E-17  4.93243E-01  0.00000E+00  1.0E-06
  1.600E+00  1.94942E-04  1.08027E-17  3.85771E-01  0.00000E+00  1.2E-06
  1.700E+00  2.20070E-04  8.56344E-18  3.05806E-01  0.00000E+00  9.5E-07
  1.800E+00  2.46720E-04  6.86948E-18  2.45314E-01  0.00000E+00  5.7E-07
  1.900E+00  2.74892E-04  5.57326E-18  1.99025E-01  0.00000E+00  1.5E-07
  2.000E+00  3.04586E-04  4.56807E-18  1.63129E-01  0.00000E+00  2.4E-07
  2.100E+00  3.35803E-04  3.77907E-18  1.34953E-01  0.00000E+00  4.6E-07
  2.200E+00  3.68542E-04  3.15229E-18  1.12570E-01  0.00000E+00  5.2E-07
  2.300E+00  4.02802E-04  2.65036E-18  9.46460E-02  0.00000E+00  4.4E-07
  2.400E+00  4.38585E-04  2.24459E-18  8.01556E-02  0.00000E+00  2.7E-07
  2.500E+00  4.75889E-04  1.91372E-18  6.83403E-02  0.00000E+00  1.0E-07
  2.600E+00  5.14715E-04  1.64159E-18  5.86221E-02  0.00000E+00  1.4E-07
  2.700E+00  5.55063E-04  1.41630E-18  5.05770E-02  0.00000E+00  2.5E-07
  2.800E+00  5.96931E-04  1.22850E-18  4.38705E-02  0.00000E+00  2.9E-07
  2.900E+00  6.40321E-04  1.07093E-18  3.82437E-02  0.00000E+00  2.5E-07
  3.000E+00  6.85233E-04  9.37895E-19  3.34928E-02  0.00000E+00  1.5E-07
  3.100E+00  7.31665E-04  8.24957E-19  2.94598E-02  0.00000E+00  1.0E-07
  3.200E+00  7.79618E-04  7.28594E-19  2.60186E-02  0.00000E+00  1.0E-07
  3.300E+00  8.29092E-04  6.45958E-19  2.30676E-02  0.00000E+00  1.5E-07
  3.400E+00  8.80086E-04  5.74754E-19  2.05248E-02  0.00000E+00  1.8E-07
  3.500E+00  9.32601E-04  5.13124E-19  1.83240E-02  0.00000E+00  1.5E-07
  3.600E+00  9.86636E-04  4.59574E-19  1.64117E-02  0.00000E+00  1.0E-07
  3.700E+00  1.04219E-03  4.12863E-19  1.47436E-02  0.00000E+00  1.0E-07
  3.800E+00  1.09927E-03  3.71960E-19  1.32829E-02  0.00000E+00  1.0E-07
  3.900E+00  1.15786E-03  3.36010E-19  1.19991E-02  0.00000E+00  1.0E-07
  4.000E+00  1.21797E-03  3.04320E-19  1.08675E-02  0.00000E+00  1.2E-07
  4.100E+00  1.27961E-03  2.76294E-19  9.86664E-03  0.00000E+00  1.0E-07
  4.200E+00  1.34276E-03  2.51434E-19  8.97888E-03  0.00000E+00  1.0E-07
  4.300E+00  1.40743E-03  2.29312E-19  8.18889E-03  0.00000E+00  1.0E-07
  4.400E+00  1.47362E-03  2.09580E-19  7.48425E-03  0.00000E+00  1.0E-07
  4.500E+00  1.54133E-03  1.91934E-19  6.85409E-03  0.00000E+00  1.0E-07
  4.600E+00  1.61056E-03  1.76114E-19  6.28914E-03  0.00000E+00  1.0E-07
  4.700E+00  1.68131E-03  1.61893E-19  5.78129E-03  0.00000E+00  1.0E-07
  4.800E+00  1.75357E-03  1.49083E-19  5.32385E-03  0.00000E+00  1.0E-07
  4.900E+00  1.82735E-03  1.37520E-19  4.91095E-03  0.00000E+00  1.0E-07
  5.000E+00  1.90265E-03  1.27062E-19  4.53745E-03  0.00000E+00  1.0E-07
  5.100E+00  1.97947E-03  1.17580E-19  4.19885E-03  0.00000E+00  1.0E-07
  5.200E+00  2.05780E-03  1.08969E-19  3.89135E-03  0.00000E+00  1.0E-07
  5.300E+00  2.13765E-03  1.01135E-19  3.61158E-03  0.00000E+00  1.0E-07
  5.400E+00  2.21902E-03  9.39945E-20  3.35661E-03  0.00000E+00  1.0E-07
  5.500E+00  2.30190E-03  8.74750E-20  3.12379E-03  0.00000E+00  1.0E-07
  5.600E+00  2.38630E-03  8.15122E-20  2.91085E-03  0.00000E+00  1.0E-07
  5.700E+00  2.47222E-03  7.60508E-20  2.71582E-03  0.00000E+00  1.0E-07
  5.800E+00  2.55965E-03  7.10408E-20  2.53691E-03  0.00000E+00  1.0E-07
  5.900E+00  2.64859E-03  6.64379E-20  2.37254E-03  0.00000E+00  1.0E-07
  6.000E+00  2.73905E-03  6.22024E-20  2.22129E-03  0.00000E+00  1.0E-07
  6.100E+00  2.83103E-03  5.83004E-20  2.08195E-03  0.00000E+00  1.0E-07
  6.200E+00  2.92452E-03  5.47008E-20  1.95340E-03  0.00000E+00  1.0E-07
  6.300E+00  3.01952E-03  5.13757E-20  1.83466E-03  0.00000E+00  1.0E-07
  6.400E+00  3.11604E-03  4.82998E-20  1.72482E-03  0.00000E+00  1.0E-07
  6.500E+00  3.21407E-03  4.54516E-20  1.62310E-03  0.00000E+00  1.0E-07
  6.600E+00  3.31362E-03  4.28110E-20  1.52881E-03  0.00000E+00  1.0E-07
  6.700E+00  3.41468E-03  4.03602E-20  1.44129E-03  0.00000E+00  1.0E-07
  6.800E+00  3.51725E-03  3.80827E-20  1.35996E-03  0.00000E+00  1.0E-07
  6.900E+00  3.62133E-03  3.59641E-20  1.28430E-03  0.00000E+00  1.0E-07
  7.000E+00  3.72692E-03  3.39915E-20  1.21386E-03  0.00000E+00  1.0E-07
  7.100E+00  3.83403E-03  3.21528E-20  1.14820E-03  0.00000E+00  1.0E-07
  7.200E+00  3.94265E-03  3.04370E-20  1.08693E-03  0.00000E+00  1.0E-07
  7.300E+00  4.05278E-03  2.88347E-20  1.02971E-03  0.00000E+00  1.0E-07
  7.400E+00  4.16442E-03  2.73368E-20  9.76216E-04  0.00000E+00  1.0E-07
  7.500E+00  4.27757E-03  2.59354E-20  9.26171E-04  0.00000E+00  1.0E-07
  7.600E+00  4.39223E-03  2.46230E-20  8.79302E-04  0.00000E+00  1.0E-07
  7.700E+00  4.50840E-03  2.33928E-20  8.35372E-04  0.00000E+00  1.0E-07
  7.800E+00  4.62608E-03  2.22388E-20  7.94163E-04  0.00000E+00  1.0E-07
  7.900E+00  4.74527E-03  2.11555E-20  7.55476E-04  0.00000E+00  1.0E-07
  8.000E+00  4.86597E-03  2.01376E-20  7.19126E-04  0.00000E+00  1.0E-07
  8.100E+00  4.98817E-03  1.91804E-20  6.84944E-04  0.00000E+00  1.0E-07
  8.200E+00  5.11188E-03  1.82797E-20  6.52778E-04  0.00000E+00  1.0E-07
  8.300E+00  5.23711E-03  1.74314E-20  6.22488E-04  0.00000E+00  1.0E-07
  8.400E+00  5.36383E-03  1.66321E-20  5.93943E-04  0.00000E+00  1.0E-07
  8.500E+00  5.49207E-03  1.58782E-20  5.67021E-04  0.00000E+00  1.0E-07
  8.600E+00  5.62181E-03  1.51668E-20  5.41616E-04  0.00000E+00  1.0E-07
  8.700E+00  5.75306E-03  1.44950E-20  5.17624E-04  0.00000E+00  1.0E-07
  8.800E+00  5.88581E-03  1.38601E-20  4.94953E-04  0.00000E+00  1.0E-07
  8.900E+00  6.02007E-03  1.32598E-20  4.73515E-04  0.00000E+00  1.0E-07
  9.000E+00  6.15583E-03  1.26918E-20  4.53231E-04  0.00000E+00  1.0E-07
  9.100E+00  6.29310E-03  1.21540E-20  4.34028E-04  0.00000E+00  1.0E-07
  9.200E+00  6.43187E-03  1.16446E-20  4.15837E-04  0.00000E+00  1.0E-07
  9.300E+00  6.57214E-03  1.11617E-20  3.98593E-04  0.00000E+00  1.0E-07
  9.400E+00  6.71392E-03  1.07038E-20  3.82238E-04  0.00000E+00  1.0E-07
  9.500E+00  6.85720E-03  1.02692E-20  3.66718E-04  0.00000E+00  1.0E-07
  9.600E+00  7.00198E-03  9.85653E-21  3.51983E-04  0.00000E+00  1.0E-07
  9.700E+00  7.14827E-03  9.46453E-21  3.37984E-04  0.00000E+00  1.0E-07
  9.800E+00  7.29605E-03  9.09192E-21  3.24678E-04  0.00000E+00  1.0E-07
  9.900E+00  7.44534E-03  8.73758E-21  3.12025E-04  0.00000E+00  1.0E-07
  1.000E+01  7.59612E-03  8.40044E-21  2.99985E-04  0.00000E+00  1.0E-07
  1.025E+01  7.97965E-03  7.62644E-21  2.72345E-04  0.00000E+00  1.0E-07
  1.050E+01  8.37255E-03  6.94006E-21  2.47834E-04  0.00000E+00  1.0E-07
  1.075E+01  8.77480E-03  6.32963E-21  2.26035E-04  0.00000E+00  1.0E-07
  1.100E+01  9.18641E-03  5.78525E-21  2.06595E-04  0.00000E+00  1.0E-07
  1.125E+01  9.60736E-03  5.29852E-21  1.89213E-04  0.00000E+00  1.0E-07
  1.150E+01  1.00376E-02  4.86223E-21  1.73633E-04  0.00000E+00  1.0E-07
  1.175E+01  1.04773E-02  4.47022E-21  1.59635E-04  0.00000E+00  1.0E-07
  1.200E+01  1.09262E-02  4.11720E-21  1.47028E-04  0.00000E+00  1.0E-07
  1.225E+01  1.13844E-02  3.79857E-21  1.35650E-04  0.00000E+00  1.0E-07
  1.250E+01  1.18520E-02  3.51040E-21  1.25359E-04  0.00000E+00  1.0E-07
  1.275E+01  1.23288E-02  3.24923E-21  1.16032E-04  0.00000E+00  1.0E-07
  1.300E+01  1.28150E-02  3.01208E-21  1.07563E-04  0.00000E+00  1.0E-07
  1.325E+01  1.33104E-02  2.79633E-21  9.98587E-05  0.00000E+00  1.0E-07
  1.350E+01  1.38150E-02  2.59970E-21  9.28371E-05  0.00000E+00  1.0E-07
  1.375E+01  1.43290E-02  2.42019E-21  8.64266E-05  0.00000E+00  1.0E-07
  1.400E+01  1.48521E-02  2.25603E-21  8.05641E-05  0.00000E+00  1.0E-07
  1.425E+01  1.53845E-02  2.10566E-21  7.51944E-05  0.00000E+00  1.0E-07
  1.450E+01  1.59262E-02  1.96771E-21  7.02683E-05  0.00000E+00  1.0E-07
  1.475E+01  1.64770E-02  1.84097E-21  6.57423E-05  0.00000E+00  1.0E-07
  1.500E+01  1.70371E-02  1.72436E-21  6.15779E-05  0.00000E+00  1.0E-07
  1.525E+01  1.76063E-02  1.61691E-21  5.77408E-05  0.00000E+00  1.0E-07
